##BLOCKS= 1          																															
Plate:	Plate01	1.3	PlateFormat	Spectrum	Fluorescence	TRUE	Raw	FALSE	22			455	560	5			1	24	384	414	Manual	455	Emission Sweep	414	6	Automatic			1	16	None
Wavelength(nm)	Temperature(¡C)	1	2	3	4	5	6	7	8	9	10	11	12	13	14	15	16	17	18	19	20	21	22	23	24						
455	23.6	13725.241	12156.353	12102.52	13610.895	12323.306	11556.46	14031.858	12144.374	12978.882	15844.987	14438.683	13443.066	14555.034	13974.949	22608.096	12469.52	15376.069	13044.355	13219.797	12014.722	12613.321	13943.441	15034.471	13593.072						
		14203.261	14502.632	14896.615	13570.993	14485.141	16070.644	17201.992	20716.01	16462.025	27854.367	14792.729	13285.301	13766.228	14379.97	18531.404	13922.208	19680.416	13505.531	13550.197	13715.145	13393.939	14160.69	18501.637	14377.021						
		14125.821	32607.754	16671.91	39076.074	12695.557	13919.93	77023.063	13662.671	14364.925	14555.938	13228.689	14202.17	13368.801	17118.182	16414.623	13975.776	18144.303	12091.722	16423.006	15037.245	13060.9	14964.821	13873.049	27288.205						
		15199.907	25141.104	13551.453	13325.714	20186.506	12922.797	14137.213	14300.949	13204.991	13383.355	12890.637	14347.439	15077.16	14013.325	13171.21	13754.411	17312.082	13017.801	13319.229	13040.231	16613.57	14208.146	26526.963	13327.455						
		17883.975	13407.167	13768.424	12952.1	12566.503	13444.688	15733.467	13878.616	13673.97	12200.6	13317.807	13903.421	12948.871	12034.014	14072.725	13685.796	19984.391	13445.521	13704.12	13146.495	18523.998	14992.109	38392.75	18643.986						
		14547.414	12358.104	15008.795	13451.57	12619.644	19361.393	13278.727	13275.876	12813.832	13792.367	13147.348	11969.181	12285.168	13107.547	23265.852	12675.008	13674.021	13546.381	13600.312	12637.129	15517.819	12983.742	15494.623	13792.185						
		14154.308	16746.244	12954.33	12303.194	13468.449	13063.412	13678.109	12900.589	13271.333	12982.527	12150.185	14117.44	14279.612	12057.731	12736.584	14059.139	14544.35	13629.59	13136.317	12661.175	14491.811	13619.244	12933.241	19338.316						
		13879.807	12832.094	15632.821	13887.587	13968.145	12641.646	13038.534	13195.451	15107.915	13683.722	12939.079	13463.098	12509.13	13759.538	13601.844	12850.064	13449.606	12624.229	15437.19	13007.968	14281.238	13800.722	14066.892	13097.498						
		28527.6	12786.006	12780.203	11800.837	13825.347	12294.935	12338.656	12301.953	13275.729	12810.69	12714.416	13088.278	14248.237	13258.456	13402.406	12505.649	13679.596	15429.045	15046.321	12683.488	11748.609	13151.508	11866.646	13910.384						
		14825.809	13619.681	12192.685	11484.903	13234.196	12110.997	13113.921	12103.633	13144.266	11846.521	12425.943	13204.41	12517.219	13108.55	12926.76	13139.92	12709.464	12544.838	12629.417	13009.758	12152.169	13237.305	13514.54	26801.42						
		12229.09	12767.763	13108.518	11579.796	12425.229	13826.242	12814.909	12045.468	14113.838	13815.875	16109.825	15949.606	13089.225	13025.488	15188.553	12636.535	13454.139	12999.646	15061.26	12843.451	13404.739	22456.803	17231.381	12757.286						
		21901.67	18270.945	12772.694	12952.775	12894.575	14267.23	13073.282	13039.772	12821.832	20346.863	12920.649	14174.449	12948.624	13627.475	13841.93	16371.712	14039.287	12908.669	13555.569	12988.709	13438.021	12702.668	12727.646	13360.979						
		14433.947	12684.08	12826.983	13189.874	12142.838	13126.267	12465.415	11915.366	14419.603	14059.007	12782.928	13324.91	12835.013	14030.971	13552.919	14974.211	13719.881	12852.487	13782.916	13406.792	11900.291	12682.65	13844.173	13533.49						
		15576.274	15369.293	13672.846	12757.103	11839.458	14064.396	13032.287	13325.939	12880.203	15233.89	13751.652	14851.557	13507.814	12914.646	12428.305	13442.489	16235.596	15086.615	14071.132	13117.03	16862.258	18503.254	17054.965	13570.844						
		14595.554	12168.836	13016.426	13629.177	13319.023	13943.918	19179.686	20334.031	17819.234	22531.937	19255.018	27492.496	13381.329	20727.619	17901.549	13863.653	26358.963	21069.047	17496.633	18260.25	13817.537	14378.116	19351.564	19786.107						
		15268.283	14553.247	15479.021	12233.098	19731.596	18959.148	15360.599	12966.941	13872.909	15099.948	13464.842	14022.021	16113.81	22660.199	19862.389	19006.227	17867.953	12494.171	14083.857	12504.96	15717.179	19673.268	15073.893	13529.52						
																															
460	23.6	14151.639	11339.559	11577.205	12330.305	13913.561	12617.604	13390.947	12091.167	13298.142	14147.542	14932.808	15031.331	15477.994	14849.133	12653.289	13522.25	15855.014	13193.982	13449.656	13030.702	12364.706	13972.383	13757.533	15191.223						
		14193.512	15227.918	14322.388	13652.08	17246.199	16611.93	14834.296	21763.875	15986.447	27069.33	15404.563	15001.318	15319.536	15629.134	15859.6	15417.841	18117.559	14987.372	14193.566	14732.908	15615.451	14377.998	20405.494	17082.705						
		13901.648	35241.309	18615.062	42602.789	13837.163	13540.527	84873.398	14895.999	16139.302	16022.306	15573.104	19612.141	15550.239	20216.309	17591.955	15779.521	16751.994	15194.233	17356.623	16818.377	14176.543	14689.407	16135.283	28899.865						
		16240.886	28638.543	14332.867	15363.539	22563.311	12974.328	13918.147	14081.915	15838.132	13975.814	14082.891	14666.076	15395.736	14924.376	15093.302	15329.064	15086.455	15047.99	14322.689	13918.895	17217.143	14459.607	27456.881	15964.168						
		16160.178	14193.664	14377.4	14303.903	12715.598	13951.355	17127.893	13772.383	14398.872	14753.61	14611.87	13968.899	13455.77	13208.363	14429.787	13301.625	23890.137	14368.097	15058.867	14057.596	21110.201	16635.736	44640.004	17694.002						
		13514.035	13927.472	14823.668	15077.854	13345.478	22237.631	14488.332	14232.883	15599.347	15048.657	13766.252	13466.792	14087.01	14138.563	24914.604	14475.516	15451.549	15368.864	15359.987	13958.396	14582.937	14499.945	15710.688	14887.879						
		14615.33	17896.432	14648.844	14291.211	14883.523	13870.825	14517.88	14567.849	14039.322	14565.318	14448.619	14377.199	15219.683	14322.596	14130.287	15356.67	14202.382	14254.745	14348.372	14823.286	17153.707	15326.099	14763.838	20897.91						
		13319.313	14583.596	15943.527	13299.406	14061.895	13613.528	14038.11	14683.773	16757.051	14356.332	12665.232	13955.998	13298.732	14154.686	15759.383	14586.431	15099.758	15195.597	17228.602	14293.029	15618.344	14770.868	15250.646	14496.693						
		31047.385	13207.347	13181.59	13520.801	12905.423	13871.05	13175.798	13678.494	14936.96	14617.586	13585.576	13585.507	16023.003	14987.858	14267.868	13461.941	14242.025	14473.871	16706.375	13806.126	13125.333	14374.333	14261.77	14156.317						
		14034.73	13488.417	13282.514	13642.082	13233.713	14622.676	13228.038	13860.256	14582.302	14663.441	14053.133	13691.078	14528.824	15701.264	14585.422	14690.321	14939.144	14294.526	13436.759	13787.094	13704.543	13565.028	14160.593	28028.305						
		13889.63	13937.195	13921.975	13426.196	13764.946	14041.366	13596.779	15408.836	13749.563	13728.904	17365.914	18553.973	14516.119	13558.684	17690.727	14665.75	14219.187	15022.645	14727.943	14007.753	17230.047	25440.318	18923.09	13156.974						
		17690.535	13806.499	13943.113	13406.635	14846.078	13491.225	13869.127	14744.298	13569.485	21304.635	14585.188	14208.282	13716.408	14729.037	16543.789	17542.91	14982.709	14633.136	14201.275	14895.104	13218.21	13867.839	14072.629	15104.184						
		14459.711	14921.479	14397.388	13999.65	14105.094	13978.508	15141.498	14276.774	14886.461	13754.665	14467.556	14165.463	21443.109	19776.322	13019.394	15734.443	14394.716	14950.912	14002.1	14974.709	16839.354	16024.976	16484.961	13598.923						
		14895.264	13122.365	13468.904	13690.132	14648.483	14102.415	14184.928	14599.496	20626.316	19834.23	13735.811	14665.313	14656.993	14260.489	14901.622	15063.005	15902.65	16226.812	14537.95	14723.742	13559.694	14959.732	21323.057	14611.638						
		14763.813	13659.106	13793.738	13402.146	13988.649	14493.942	12443.349	15044.227	14931.85	16558.617	19423.162	26694.584	15226.329	22063.496	18239.227	18405.207	16825.838	16219.62	19167.707	18964.637	15431.941	15594.596	19641.598	19904.656						
		16511.15	17484.914	20204.256	16197.724	15041.544	13480.911	20778.707	19811.783	15434.617	15633.484	14350.337	15344.407	14503.871	22807.932	15324.04	14200.434	19079.537	17865.34	13816.237	12767.775	14330.662	18864.619	15608.662	16141.33						
																															
465	23.6	13893.692	13711.519	13749.311	15093.579	14819.914	13767.443	13735.91	13696.582	14280.757	14680.404	14412.711	13541.066	14782.926	15528.564	14730.989	14278.766	16051.326	15131.223	13850.345	14552.84	14755.676	14897.979	14264.798	17590.426						
		14399.417	15010.126	15895.142	14420.435	17459.645	17203.051	15757.587	23301.15	16001.09	29631.107	15637.283	16145.697	16735.881	16903.539	17345.295	16527.877	19223.051	15334.324	16680.521	16622.729	18195.156	15868.392	22986.18	18217.959						
		15018.107	36217.84	18659.086	42268.016	14750.486	16029.094	90773.141	15519.833	16737.842	16306.667	16379.524	19520.861	15924.332	19192.742	18608.813	15905.683	16914.85	16971.211	17771.898	16356.611	15515.665	17166.723	16103.238	29712.762						
		16325.437	30384.092	14324.542	17391.285	23290.988	15776.072	14796.591	15634.042	16569.508	15803.022	15125.813	16680.578	15664.821	15419.355	16233.479	15584.076	17009.76	16245.145	16392.512	14705.896	19489.371	15931.738	31044.074	15846.352						
		17028.313	14729.918	15526.693	14478.049	15816.806	15283.567	17910.467	16459.33	15660.363	16562.531	15483.488	15293.113	16200.551	15373.476	15618.129	16959.438	25099.719	15683.341	16432.73	15666.042	22007.227	17697.943	46712.293	17774.701						
		15232.405	14574.593	17114.004	14973.659	15591.937	24045.818	15437.216	16178.594	14626.747	17054.15	15276.021	15420.984	15342.629	15312.46	24757.625	14496.832	16722.463	17081.006	16700.027	14379.117	17624.16	15870.252	17663.633	16081.526						
		15035.896	18107.697	14876.109	15331.535	16491.293	15570.656	15628.332	15662.332	16079.658	15583.258	14376.864	15962.665	16358.354	16141.812	14827.094	15503.429	17758.891	14028.82	15182.322	16014.29	17078.584	16213.002	16677.85	21842.215						
		14988.048	15999.482	17395.375	15063.967	14917.644	16060.07	16140.574	15687.142	17426.119	15402.165	15346.205	15457.436	15656.508	14581.336	16705.533	16110.82	16334.703	14669.981	18880.437	16322.721	16302.617	16048.471	17291.855	16887.422						
		31480.404	15243.181	13804.12	15326.796	14687.478	14588.556	16883.588	14949.363	15827.013	15704.63	15724.984	15067.649	15468.85	16804.404	14957.514	16418.07	16832.713	18078.527	17997.67	16114.632	15823.953	16395.521	15315.099	15660.555						
		14808.599	14361.917	14386.331	14594.273	15522.361	14868.162	16080.262	14225.768	16108.752	14581.125	15637.993	16665.182	14957.062	16596.234	16852.125	16405.961	16336.728	15313.216	15382.092	15803.388	16465.52	15673.592	16043.953	29216.83						
		15042.971	13649.867	14530.484	14231.914	13093.896	13662.402	14738.927	15220.785	16407.801	15754.259	17969.576	19922.869	15345.196	15175.549	18489.707	15704.387	16740.336	15860.731	16959.42	15257.153	18416.904	26349.527	21592.773	14134.244						
		19367.896	15403.531	12825.027	14641.9	15348.578	15346.129	14682.539	15998.297	15789.689	23914.918	14603.36	14724.936	15905.255	15076.063	17413.082	17697.479	15706.282	15080.902	16143.663	15563.127	15039.717	15468.422	15990.939	16485.02						
		17893	18197.012	14952.014	14046.375	16062.137	16572.559	14909.115	14788.691	15268.297	14806.262	15808.171	15765.714	20267.156	20863.914	15588.785	17144.055	16057.859	15834.506	16428.023	14718.901	20307.191	19941.719	17074.533	16055.312						
		15391.721	14574.547	14978.583	15652.862	14863.091	14805.406	15144.268	15492.789	20547.994	21451.775	16819.73	18090.803	15311.023	15385.943	14842.98	14920.816	16316.352	18057.789	15788.463	15872.563	15727.556	16200.534	20885.182	15239.803						
		14559.777	14359.055	16273.928	14025.933	14006.92	15079.81	16202.028	17478.934	16947.715	17679.115	16079.738	23739.568	14901.017	23411.369	23149.299	22151.629	18082.389	18321.709	14562.053	15431.638	15587.055	16024.731	17155.938	19900.998						
		16441.318	16303.51	16277.441	13932.292	15144.737	14762.567	17096.01	16375.969	15706.725	17745.404	15079.43	16463.396	16094.965	25303.506	16575.137	15591.029	17298.199	16119.876	20127.168	19471.25	15373.191	20632.139	16040.163	16000.267						
																															
470	23.5	13468.579	13950.047	14199.222	16505.682	13890.46	14409.773	15926.237	14088.492	15395.015	15559.546	15483.952	15537.5	16586.346	15626.468	15055.892	16285.374	16320.918	15852.875	16164.833	15428.674	14600.605	16289.396	17363.107	16972.455						
		15581.985	17747.863	17959.342	15039.909	20599.926	18690.947	17603.045	26278.943	16665.52	32430.074	17114.631	17633.852	15807.729	16836.75	19160.738	17658.139	19204.008	18393.641	17912.34	17587.568	18676.586	17030.271	23316.662	20172.057						
		15888.249	37568.758	18695.498	42521.242	17396.697	17203.723	83061.055	16662.762	17720.484	15998.297	16781.574	21288.773	16455.447	21178.783	18209.639	17679.32	18761.359	16673.219	20257.604	18023.943	17352.549	17127.695	16170.041	32010.422						
		18071.572	30690.908	16608.764	18256.895	22951.766	15924.797	17692.414	16244.613	17637.996	16803.971	16345.22	16650.227	17579.049	17805.186	16440.566	17399.379	17630.133	16599.557	15438.235	16248.405	20042.961	17351.199	30716.824	17221.822						
		17728.682	16541.145	17002.184	16145.343	15867.161	16816.664	19494.988	16447.781	17344.668	16382.685	18248.545	16878.965	16087.247	16154.112	15987.47	17321.242	26157.205	17116.031	17667.236	17035.25	24584.395	18819.648	50602.813	18178.285						
		15960.873	16028.125	17138.693	15927.105	16592.066	26410.174	16532.969	16395.797	16795.232	15855.676	17932.084	16466.625	16422.504	17369.687	27254.566	16971.188	17051.148	16574.912	17107.15	16782.746	19177.098	18058.879	18708.754	17143.549						
		15720.053	18960.711	16727.521	15589.101	16915.381	16124.276	17734.166	17044.514	17259.764	17324.582	16361.11	17153.439	16863.932	17221.432	16365.329	17366.113	17185.193	16511.777	18156.393	16964.596	18290.279	17824.166	17596.602	20242.037						
		15793.891	14990.424	17829.066	16266.008	16253.705	15354.881	16332.238	16644.836	19310.328	15659.996	17338.449	17239.605	17132.852	16698.373	17125.742	17495.219	17103.209	17365.252	20789.143	16356.175	18759.984	16909.754	18448.801	17195.664						
		33257.008	15366.504	15746.468	16363.199	15746.518	17072.729	16079.006	15600.801	16382.216	16788.992	16160.991	17399.852	16548.057	15704.124	16078.784	17051.709	17105.039	18673.637	19755.002	16921.309	17156.387	17276.289	16742.422	17592.865						
		15881.76	14728.409	16395.512	15578.044	15434.025	16859.668	16805.953	17517.631	17478.516	17662.293	16896.857	18081.389	16141.699	17357.869	16536.305	15610.476	16635.799	17064.453	16420.428	16667.764	16748.871	17041.5	16606.316	31580.777						
		15572.008	15374.813	15917.99	15748.521	15572.773	15679.234	15582.045	17045.908	15934.331	16366.585	20392.08	22158.186	16742.633	17015.576	19175.771	16464.031	17918.941	17265.488	17199.523	17519.006	19513.129	26356.965	21194.053	17273.76						
		21204.359	17162.672	15780.911	15872.969	15729.731	16041.188	16287.555	15513.431	17425.965	24734.008	17197.756	16625.812	17619.645	18145.965	20095.361	19688.348	17056.797	17812.027	16911.684	16827.055	17004.51	17311.162	15511.917	17131.271						
		20205.488	16254.861	15293.28	15508.2	16542.434	15660.981	15238.396	15908.29	16795.658	17697.305	16378.511	17961.316	16751.363	17409.273	17035.428	20302.629	17919.674	16075.235	16442.135	17688.393	16582.955	17364.803	17527.877	18445.838						
		15929.053	15753.226	16698.27	15010.238	16042.125	16719.674	23630.314	22248.855	16887.658	17328.172	16185.612	17306.135	15028.557	20016.246	16387.693	16881.801	17685.521	19535.545	16777.678	16364.608	16611.621	16772.541	26114.254	20303.373						
		16603.604	17124.801	17198.428	15269.293	21250.932	21773.334	15669.864	15710.156	21115.979	21855.639	16643.914	25353.793	15474.729	23553.086	17228.795	16923.566	20608.775	21481.689	17665.699	17064.34	17160.4	17262.482	17784.033	18712.283						
		16616.535	15790.598	23098.725	19284.908	15376.853	16222.426	17966.031	16407.615	16310.842	18523.781	20884.184	22535.027	23262.041	33130.844	18050.799	17110.41	17345.357	16271.498	21005.609	19965.592	21177.738	26562.662	17296.641	18000.686						
																															
475	23.5	14281.43	14557.166	13157.598	15426.386	15130.397	14983.876	14353.249	15927.93	14766.146	16546.418	15997.049	15545.323	17262.822	16647.066	15062.413	14717.813	15765.999	15955.086	15994.296	15414.893	14360.423	16827.09	16636.041	17585.893						
		15407.007	16229.661	17137.396	15646.199	20507.451	17992.881	16130.805	23630.242	16344.122	29469.602	16588.557	16889.914	17461.197	17307.32	19075.609	17526.504	20382.951	16245.82	16367.598	16759.285	18396.146	17088.152	22066.881	18816.83						
		16195.142	34904.07	18527.082	41202.875	15316.127	15282.259	82368.984	17088.563	17128.021	17133.238	16629.033	19202.041	16441.824	21417.523	18568.619	18063.428	17966.006	16363.661	19377.479	17761.197	16549.707	18183.793	17462.588	30141.766		17657.662	17657.662			
		17530.674	28511.652	16151.622	19179.479	22445.232	16211.271	16403.303	17857.498	18316.221	16498.49	16015.418	17844.301	17176.018	17177.975	17302.234	16936.963	18123.555	17388.287	17347.104	16801.486	20757.313	16257.184	30302.273	17071.113		16221.566	16221.566			
		17004.594	15743.604	16579.896	16038.069	16425.373	15826.358	19916.588	16360.758	16332.81	16492.588	16530.244	15746.853	16988.902	17656.678	15952.734	17431.393	26986.676	16788.496	17397.322	16739.473	22556.756	19732.119	49955.16	19791.191		15508.07	15508.07			
		15465.389	15822.64	17488.062	15564.391	16216.702	27050.51	16398.605	16380.499	16730.754	17790.334	17396.152	16568.721	17610.289	16242.834	25031.096	16256.415	16891.5	18552.326	17270.281	16506.662	18266.627	17111.299	17709.051	16580.404		17642.904	17642.904			
		16864.742	17576.916	18009.225	15815.717	16768.687	15015.392	15699.653	17869.723	17583.674	15138.313	17342.947	15991.069	17657.662	16221.566	15508.07	17642.904	17482.609	17165.154	16197.645	16942.059	19567.246	18907.49	18387.123	19988.031		17482.609	17482.609			
		15319.951	16346.859	16341.835	15699.001	15632.918	16964.322	16018.927	17065.301	18334.049	15905.561	17197.674	15882.824	17018.635	17317.256	16853.393	17158.328	16226.854	15837.614	18937.725	16379.183	18064.012	16962.949	18314.973	16425.398		17165.154	17165.154			
		31809.955	15954.086	16195.559	17612.145	15428.065	16654.148	15892.985	17098.328	16617.82	16409.281	17265.139	16614.574	17260.49	16516.361	17475.977	16724.979	17502.332	19144.797	19118.816	16496.182	16847.852	17268.182	16260.884	17354.336		16197.645	16197.645			
		16690.637	15546.755	16239.936	15490.619	16072.889	15351.394	16411.875	16248.506	17492.143	17948.053	17250.961	18346.299	17194.576	16324.118	16585.16	17192.268	16599.57	17297.375	15569.62	15704.628	16155.078	17112.461	16434.418	29173.309		16942.059	16942.059			
		15904.002	16461.764	14730.133	15937.715	15844.38	16356.893	17979.537	16069.16	16702.592	17025.164	20952.152	20837.299	18267.145	16798.039	19282.139	17128.756	17041.756	15687.37	17188.77	16544.494	19657.775	25038.332	21308.881	16458.461		19567.246	19567.246			
		19737.859	16319.786	15789.211	15163.759	16296.176	16764.254	15501.316	17081.623	17290.35	23826.594	17172.592	15917.825	17688.02	16516.277	19358.004	20608.695	17888.082	17395.299	17098.256	16657.865	16697.213	17946.486	16879.453	16921.084		18907.49	18907.49			
		18966.646	16346.992	16035.503	16559.225	19975.369	21794.191	15920.017	16053.502	15703.355	15997.319	16845.113	17697.918	16174.918	16948.301	16144.783	18985.523	17070.139	17395.359	15834.163	17127.861	15941.965	16166.447	24952.277	22901.932		18387.123	18387.123			
		15308.867	14747.412	15640.669	15643.397	15998.784	16302.352	23729.125	23456.709	16852.25	16817.592	16992.203	15759.875	15698.996	18961.695	16965.363	17841.98	16726.518	19055.25	17148.551	16903.922	21047.387	21652.629	21322.842	17820.656		19988.031	19988.031			
		16059.163	16142.953	15569.89	14783.647	15128.591	14950.358	16552.643	17002.588	25937.799	26960.473	17314.184	22837.461	16390.307	21934.801	17185.742	18043.816	19710.096	21475.512	15898.652	17575.045	17733.213	16242.604	18107.496	19391.701						
		18542.859	19138.375	16178.553	15270.039	15935.588	16640.385	18021.906	17019.719	16599.406	17334.814	19828.654	21431.359	20654.465	30547.125	17122.635	17321.738	16624.141	16581.26	16583.428	16986.883	17125.061	22052.605	16044.922	18098.486						
																															
480	23.5	12716.889	14326.746	13634.261	13447.434	13867.022	12996.602	14184.094	13862.427	14268.284	15405.666	15332.273	14259.294	14742.105	14936.933	14730.411	14818.215	15686.835	13929.497	15287.871	14676.579	13584.279	13630.683	15236.486	16840.59						
		15794.882	15505.919	15010.843	15724.758	19014.211	18303.318	16552.48	20687.289	16271.72	27154.621	17099.182	15689.789	16386.443	17741.67	17462.721	17697.123	18852.906	16104.338	17368.809	16040.958	16824.779	15729.313	20947.891	18137.223						
		15738.203	32473.211	18039.002	35921.297	14603.085	15686.312	71895.938	15641.411	16265.285	16862.676	16899.369	17686.195	16933.262	18622.311	17856.107	16422.652	17090.658	16070.662	19041.855	16639.119	16584.211	17045.363	15899.266	27246.348						
		16851.307	24846.223	15273.035	17932.111	20522.15	15565.457	16294.352	15763.818	17742.881	16274.821	16990.654	15980.103	16563.908	17188.787	16402.709	15512.729	17207.041	16607.412	16872.93	15989.87	18057.984	17094.748	28230.912	17905.277						
		16099.849	17541.535	16336.325	15766.409	15638.138	14800.312	18104.816	15930.68	16831.912	15614.803	15403.357	16261.263	15624.943	16051.219	16787.406	16684.404	24032.229	16984.848	16272.086	16080.043	21342.797	16932.012	41964.156	17554.092						
		15593.812	15760.929	15004.433	14924.349	15441.935	25937.281	16521.482	15805.507	16566.238	16736.184	15886.34	15819.586	15543.416	15176.117	22635.488	16774.746	15651.899	16506.352	16175.664	15802.135	18128.592	16440.566	16343.096	15983.35						
		15354.234	17057.727	15913.571	15165.018	17063.912	14946.053	15304.012	16444.98	16861.742	16795.617	16053.934	15393.37	16112.427	15587.62	16068.73	17589.146	15611.797	16049.148	15392.573	16086.268	17544.709	17683.102	18120.986	17978.777						
		15109.473	14760.84	17652.697	16068.623	15310.862	15866.019	15625.827	15992.819	17258.828	15771.834	16429.551	15663.914	15830.986	16268.913	17020.217	15529.09	15398.651	16272.653	19291.176	14791.652	16604.006	16418.77	17729.92	15989.002						
		27904.99	14737.587	14401.729	14970.085	15161.849	15060.023	15553.092	16142.822	15625.862	16066.913	15929.535	15879.43	16327.935	16008.777	14648.039	16334.598	16442.473	17871.963	18030.328	16766.523	15893.443	16065.19	15417.627	15957.265						
		14993.739	14363.501	14544.672	15078.828	15888.129	15617.004	14747.624	16145.486	15388.011	15754.595	15487.73	16958.422	15648.883	14833.676	17187.504	16070.052	16676.314	16381.885	15999.774	15688.278	15262.541	16461.727	16481.66	25821.605						
		15547.403	14794.684	14139.152	14736.226	14343.831	15890.877	14936.79	15997.055	15383.023	15350.235	19344.715	21748.385	16680.785	16596.867	17817.637	16782.139	16816.492	16425.395	15886.561	16466.537	17380.623	23373.105	20773.539	16350.357						
		17616.461	14875.786	14782.002	15758.507	14288.553	15803.2	17344.303	14964.155	15823.329	22219.615	16203.253	15422.602	15777.146	16674.123	18019.549	18856.607	16562.328	15918.229	16198.478	15974.129	15830.035	16105.304	16134.896	15900.686						
		18990.537	14241.144	15968.096	19118.004	16698.162	15547.798	14740.451	15613.475	15896.661	16186.721	16082.062	16607.352	15414.02	16114.519	16043.365	18939.723	16525.096	15764.682	15268.782	16392.959	16042.831	15865.853	17094.695	15957.986						
		20340.355	21397.387	15458.382	15535.023	15493.05	15916.602	15629.237	15035.805	16326.855	15005.588	14974.199	15138.658	15459.031	18714.227	16238.3	16744.719	25093.367	25672.717	16957.285	16950.539	14982.311	15673.996	20643.742	15731.779						
		15748.218	15471.918	14972.141	15156.459	15960.01	14332.413	15482.127	15184.231	17324.348	16082.521	17926.652	23679.141	19195.158	23476.252	15970.136	15594.559	16564.178	18826.139	15878.332	16946.449	19229.631	18534.727	18913.396	19717.641						
		16187.256	14515.623	16989.779	16194.425	14287.695	14486.961	23445.656	21062.414	22226.959	21816.852	16055.502	16402.922	15199.907	21612.998	16131.521	16781.059	16894.709	16678.77	15676.224	15774.173	16433.709	20544.223	16077.84	16917.307						
																															
485	23.4	12661.959	13265.711	12932.828	14366.664	13929.682	13169.773	13079.832	14208.902	13834.854	14354.776	15325.616	14899.437	14419.373	15833.856	15078.725	14196.886	14042.063	14092.822	14755.021	14399.525	13138.42	14338.921	15323.766	16101.471						
		14174.279	14366.604	14655.931	14333.968	18135.715	17149.437	14352.921	21817.906	15849.734	24079.771	15241.258	15810.837	16058.434	15958.035	17742.086	16149.463	18572.73	15082.002	15373.313	15357.218	17907.168	15157.922	19784.777	17926.545						
		14937.86	29714.303	16399.842	32294.043	14044.713	15131.405	64114.258	16060.492	16987.188	16080.631	15476.525	18877.449	16322.13	18939.449	17586.93	14989.131	16282.01	15501.213	17113.67	15890.481	14839.233	16303.559	16737.949	26436.41						
		16764.523	23522.377	14887.586	17121.285	19912.363	15389.406	15132.912	15775.903	15621.884	15614.296	15939.6	15421.511	15477.736	16188.388	15686.072	15886.623	16854.588	16273.996	14965.414	15663.436	16998.867	16019.647	26186.166	16008.246						
		16315.077	16499.152	14545.687	14379.829	14897.931	14744.599	16716.324	14972.189	15555.568	16161.542	15615.041	15828.226	15351.785	15137.271	15957.322	15518.539	20631.184	15272.284	16112.809	15171.762	18880.818	16755.52	34983.934	16844.182						
		14281.824	15216.906	15313.53	14178.125	15398.619	25829.307	15290.707	15110.433	16005.884	15646.717	16210.606	15014.968	15991.609	16285.107	23591.682	16040.167	15291.69	16761.193	15410.574	15866.726	17142.764	15910.025	16553.75	15174.243						
		15510.078	16672.314	15229.874	14683.393	15418.207	13670.72	15085.181	14546.051	15875.862	15771.072	15111.564	15158.832	16061.337	15178.142	15996.837	16542.568	15205.191	15290.25	15335.11	14694.563	16488.52	17677.143	17534.494	19584.748						
		14506.825	14665.002	16934.287	15487.234	15243.683	15479.915	15442.803	15734.277	17718.023	14913.521	15924.604	15426.305	15326.104	14478.432	16142.937	15017.937	15894.325	15307.629	18534.148	15361.7	16101.53	15990.885	17002.324	15461.041						
		25140.525	14925.873	15095.535	14886.261	13496.249	14722.1	15933.162	15873.506	16400.512	15934.053	14180.129	15823.071	16591.287	15283.027	16109.456	15454.462	15974.419	17160.369	17497.781	14935.69	14800.692	15242.847	16004.12	15973.475						
		14055.688	14379.316	14452.951	13394.463	14087.488	14283.307	16001.31	15752.962	15692.857	15134.893	15169.846	16181.83	15268.332	15072.014	15493.796	15799.084	15675.939	15285.656	15053.267	13969.738	15856.139	15684.342	14666.612	24871.885						
		15123.014	14386.418	14991.019	13659.488	21213.082	21700.791	14568.867	14705.786	15831.563	14557.451	18055.063	19093.922	15936.469	15501.424	18135.877	15324.319	15953.287	15894.377	15521.837	15650.386	17219.83	22386.727	18686.967	15079.383						
		16964.59	15310.07	14867.622	15859.601	14525.979	14644.146	14946.761	15047.307	14997.85	21843.373	14607.072	13957.189	17708.393	18069.6	17230.088	17718.426	15142.454	15283.177	16189.982	15104.978	15439.363	16263.845	15565.533	15120.166						
		16566.555	15257.855	14804.147	16842.58	14373.513	14708.522	21150.266	21920.562	15481.207	16353.72	16354.315	18270.979	15812.717	15191.516	15725.648	16774.125	15425.162	15624.545	15460.118	15049.568	15101.521	15211.803	17041.375	16347.651						
		14760.452	14821.054	15206.434	14254.159	14086.455	14411.92	15028.158	15506.86	16429.254	16046.194	15741.837	15430.691	15154.726	16729.566	16226.428	15619.721	15487.813	17186.859	15291.481	14066.588	14529.57	15730.62	20043.219	15315.44						
		13758.244	15203.108	20264.826	20724.051	14830.708	14126.815	14731.586	15927.484	16357.693	16832.068	16304.411	21358.172	15032.731	18216.203	16341.824	16057.41	16535.66	17796.857	15246.123	15782.68	23550.35	23093.109	16402.898	17366.045						
		15362.549	14976.552	16155.74	14610.742	14922.521	14329.489	16477.982	14760.765	16025.361	15484.348	14609.608	15836.472	15958.763	21188.957	14457.817	14646.039	15514.589	16291.105	19108.469	19632.273	15524.531	20252.309	15935.65	15930.893						
																															
490	23.4	12662.68	12583.348	12616.711	13512.937	12986.619	12425.846	13747.832	13663.365	12996.688	13923.05	13645.038	13068.059	13970.632	14159.056	14113.625	14021.758	12728.169	13682.227	14532.417	13593.69	13150.854	13502.729	15140.898	15395.543						
		14177.062	14126.584	14112.049	14172.536	18283.818	15111.686	15194.006	19405.584	14670.427	21176.029	14817.798	15713.658	14424.521	14925.808	15155.446	15455.811	17279.021	15046.821	15284.147	14785.522	17062.959	15499.466	18000.336	16491.988						
		13729.359	26213.424	16394.334	27735.08	13947.252	13927.762	54937.512	14790.169	14798.622	15326.674	14909.372	17101.941	15737.546	17133.025	16904.605	14870.76	15552.037	15791.144	16464.609	15632.099	15197.299	16082.576	14981.266	23751.117						
		15547.577	21468.82	14258.526	15261.038	18067.936	13889.497	14676.001	15606.59	15405.309	14231.305	14453.99	15192.584	14542.342	15064.964	15933.792	14008.394	14540.801	14625.067	15765.315	14824.01	17189.33	14877.878	24157.977	14760.77						
		14630.65	14627.335	14308.522	14057.677	14004.471	14444.49	16006.51	14844.357	14189.276	14451.704	14523.021	15521.849	14654.875	15010.562	15498.593	14781.563	20925.24	15694.348	15619.434	15648.575	18403.189	16171.989	30816.568	15330.268						
		13516.91	14649.276	14288.199	14409.912	15136.648	22950.297	14599.631	14532.134	14585.87	14361.525	14745.554	14351.487	14582.688	14430.458	20535.334	14910.633	16081.058	15444.627	15706.573	15290.817	15586.154	15189.644	15712.573	16346.981						
		14918.39	15841.495	14037.462	13609.769	14629.539	14560.476	15039.087	14032.248	14895.152	14325.865	13943.683	13951.065	15620.521	15281.294	13686.116	15340.459	16001.437	15468.654	15998.283	15025.049	15122.664	15374.559	15249.984	15911.141						
		13151.335	13497.168	14689.043	13656.377	14590.867	14059.093	14311.805	14068.473	15865.73	14697.786	14788.96	15410.758	14863.954	14410.559	15370.979	14878.685	14313.824	15256.521	16461.557	14701.14	16199.173	15004.047	16121.3	16079.099						
		22235.557	13827.992	14494.669	13828.827	13915.056	13382.859	13861.963	14457.051	14251.473	15005.192	15123.473	14516.344	15676.731	15488.443	14346.701	15129.224	15118.657	16132.994	16446.697	15180.696	14577.693	15286.391	15323.801	15867.014						
		13278.88	14351.77	13230.146	14280.229	13541.087	14381.763	14553.343	14514.757	13899.354	14478.524	13722.203	15630.043	14986.863	13662.642	14379.555	14458.496	14609.576	14480.229	14582.359	14683.791	13668.959	15341.968	14862.718	22317.654						
		13126.728	13960.669	14206.195	13915.239	13039.505	14096.637	14834.809	13927.121	14590.994	14576.427	17126.51	18645.721	15862.714	14729.327	15255.518	15346.539	14412.76	15140.191	15202.525	15298.687	16053.177	19492.523	17359.301	14551.807						
		15599.637	13373.928	13143.88	14363.172	14513.016	13695.728	14394.615	14823.899	14495.419	21060.857	14357.344	14848.652	14469.966	14806.442	16636.719	15437.798	14497.394	14502.122	14447.51	14165.639	14855.243	14909.601	13852.701	14557.169						
		15470.324	13679.779	14389.093	15919.881	13271.12	13649.27	15079.177	14663.686	14446.65	14531.247	13901.08	14307.305	13715.639	14290.178	14917.469	17501.322	14919.606	14914.464	15841.24	13731.375	15293.294	15987.484	15797.846	15696.748						
		13938.586	13325.171	14568.012	14580.06	14236.087	14084.088	14173.514	15203.158	14077.146	14852.078	13955.403	14908.697	14350.041	14637.749	14932.368	15305.701	15048.687	16382.147	15795.373	16194.718	14380.258	15539.377	18378.242	15200.803						
		18358.42	19801.293	13324.914	14207.318	13480.661	14129.65	14586.299	14410.498	17417.447	18208.705	22215.414	25439.973	14500.821	17293.984	15336.432	15415.134	14770.82	17074.105	14144.317	14924.803	14840.468	15262.042	14748.761	16042.622						
		14316.062	13322.632	14727.186	14271.102	14106.126	13782.889	15325.603	13592.706	14156.16	15590.356	14722.32	14888.946	14976.842	19747.506	14828.583	14554.072	16289.946	14983.783	13974.084	13424.729	14548.389	18434.299	15430.072	15046.364						
																															
495	23.4	11605.044	12168.738	11613.864	12444.924	12502.502	12208.372	11769.322	12845.506	12119.587	12410.068	13199.862	13121.904	12231.212	13351.896	13316.217	12039.064	13695.18	12024.224	12577.13	13086.775	11506.989	12948.355	14263.132	14099.105						
		13988.24	12557.957	15011.04	13481.896	17198.252	13918.306	13980.029	17887.186	13080.716	20615.896	14741.384	14496.15	13141.349	14270.475	14314.79	15054.159	15618.836	13441.455	13599.434	14539.309	15422.442	13329.625	16172.792	15646.994						
		12688.119	22113.371	14855.604	24498.012	13190.299	13522.36	45310.902	13617.163	14484.891	14145.877	14335.091	15633.398	15077.049	16514.396	15123.914	14116.911	14410.615	14611.856	15315.262	14510.652	14255.987	14400.737	14523.439	22086.486						
		14880.254	18652.115	14385.347	15449.292	16645.463	14060.896	14234.729	14191.425	14902.313	14436.589	13705.054	13823.402	14079.929	14870.644	14590.128	14470.691	14558.791	14195.82	14210.705	14240.892	15119.255	13925.317	20521.879	14016.816						
		13747.127	13073.801	14407.303	12586.928	12978.499	13686.365	14549.52	13644.852	14025.941	13855.935	13476.5	13427.994	13668.721	12831.108	14373.253	13330.368	19053.846	13738.43	14428.079	13562.02	15791.409	15815.183	27472.846	13666.829						
		13444.084	12288.479	13657.521	13360.884	13922.729	21573.508	12899.813	13973.32	14097.9	13708.93	13803.052	13749.431	13978.158	14055.536	18990.309	13920.346	14408.325	15608.336	13853.351	14102.053	16139.923	14228.146	15315.728	13332.176						
		13992.632	13805.771	13537.213	12851.782	13579.791	12445.54	14823.582	12937.529	13742.193	13500.379	14047.142	13971.628	14411.716	14240.755	13660.756	14389.608	14040.373	13780.705	13334.442	13146.872	15102.258	15040.341	14284.627	15451.223						
		13291.227	12675.138	13158.086	13379.451	13366.531	13411.931	14371.748	14514.396	15255.756	14669.162	13356.61	13487.985	13649.354	13706.256	13945.195	14900.518	12592.527	14540.443	13357.606	13092.649	15099.9	13888.677	14624.344	14327.683						
		19007.236	12667.351	13879.889	12409.066	12677.83	13683.296	12869.471	13294.054	13409.688	13835.596	13751.334	13666.42	14055.403	13782.42	14129.37	13827.258	13885.93	16406.645	14982.546	13654.028	12986.828	14073.338	14125.246	13736.002						
		13454.738	12647.578	12988.444	11936.501	13144.533	13929.205	14364.719	12717.775	13637.465	14407.87	13347.591	14521.891	14056.405	14083.235	13547.141	14392.294	14937.805	14980.539	14300.478	14137.906	13676.271	14042.604	14544.043	20621.707						
		13059.807	12929.701	13632.124	13193.979	12843.183	14202.026	13548.346	13629.883	14025.719	14457.856	16098.137	17657.797	14460.59	14722.194	14948.256	14743.113	14600.336	13694.275	13840.894	13998.644	14847.093	18027.225	15554.113	13230.366						
		14297.176	14460.649	14225.597	13538.521	12877.701	12634.401	14629.1	13168.251	14603.2	18977.988	13140.514	14473.994	13535.256	15048.617	15802.792	14610.49	14065.069	14027.438	13350.923	13677.876	13422.133	13585.048	13678.627	14101.746						
		14112.844	13258.995	13093.563	14740.12	12997.941	13454.677	13410.77	14555.574	14272.843	13423.812	12824.656	14747.603	12593.379	13714.903	13314.629	17037.479	13569.843	13147.331	13192.241	13742.31	13798.313	14666.192	14450.856	14555.602						
		12902.604	12759.716	13197.928	12607.468	16032.013	16512.336	14209.123	13838.93	13862.871	14543.424	20767.174	22011.971	14142.719	13953.765	14504.289	14684.67	14753.287	14819.485	13577.021	13867.703	13192.698	13897.616	16137.226	12682.812						
		17044.785	17973.189	17902.922	18358.646	13318.759	13738.713	15119.16	14097.772	14546.484	15268.626	13800.812	17328.992	21703.143	23943.746	13516.951	13929.587	14158.684	15457.449	16117.043	15483.13	13980.35	14733.374	14366.572	15255.591						
		12860.747	13388.011	14107.693	13051.248	12813.298	12809.613	14568.036	12193.679	16817.689	17706.141	13012.007	14259.018	13267.972	16493.426	20515.334	21047.523	14419.879	14826.156	12840.135	12779.035	16969.609	20921.414	14395.769	15944.873						
																															
500	23.4	10325.298	11329.455	10651.248	11076.075	10870.965	11731.245	11799.996	11159.709	12216.96	12378.984	11669.4	11130.4	12704.074	12349.449	12320.188	11715.373	12732.957	12641.932	12180.448	12343.812	11874.123	11817.094	12522.222	13696.409						
		13103.231	13073.342	13427.084	13050.518	16098.453	14174.542	13324.181	16561.705	13179.506	18314.867	13357.172	13244.487	13241.862	13298.411	14962.973	13790.899	14697.093	13794.623	12663.465	14189.432	14452.928	14274.492	15862.639	15082.625						
		12727.979	20010.295	13531.649	22923.885	13052.437	12582.94	38591.625	13587.505	14577.506	13649.252	13771.235	15442.713	13122.989	15813.553	14201.267	13938.388	14318.573	13500.42	14080.62	13896.333	13274.607	13927.854	13808.78	20690.553						
		13336.8	17212.756	13282.135	14253.569	14810.731	13038.528	12909.674	13327.419	13775.005	13074.566	13423.027	13362.343	14077.586	14513.597	13636.128	13457.824	15112.692	13219.691	13783.995	13671.832	15037.851	13961.195	19481.264	14089.363						
		12905.553	13145.084	13147.856	12628.085	13843.608	13339.814	14283.871	13185.411	13105.467	11652.723	13289.157	13730.8	13716.973	13326.457	12709.967	13570.131	17147.557	13874.199	14004.1	12987.324	15116.292	14174.086	25124.496	14198.045						
		12672.763	13137.879	13414.276	13183.778	12823.648	21610.6	12710.459	12811.803	12772.176	14433.518	13678.551	13116.452	13568.319	12777.202	17046.668	13847.005	14021.051	14023.982	14401.254	12219.682	15000.804	13596.045	13962.429	13479.867						
		12805.035	12862.435	12542.58	12705.957	12505.198	11513.171	13722.401	14590.994	12889.131	12120.893	12816.17	12837.98	13122.426	13432.752	12880.241	13344.713	14036.357	13941.666	13609.269	13072.971	14774.788	14266.997	15169.013	14270.164						
		12570.545	12401.58	13537.522	13068.422	13124.44	12990.364	12942.266	13126.715	13563.677	13469.987	13127.736	13095.687	14011.058	12044.78	14354.494	13597.243	13536.876	14408.208	13364.021	13395.288	13814.149	13805.653	13721.35	14063.324						
		18568.572	12863.739	12047.026	12090.067	12127.939	13129.588	12630.01	12957.965	13128.48	13972.971	13014.434	13278.887	14098.807	13185.8	12808.554	12646.733	13556.685	15076.396	15651.687	13714.644	13010.623	13775.939	13778.662	13058.607						
		12035.58	13152.821	12210.11	12975.955	12257.289	12308.125	13034.196	13032.907	13070.671	12933.54	13945.337	13836.336	13504.288	13077.199	12299.91	14105.485	13127.425	13520.236	12992.979	13694.216	13038.811	13976.817	13074.881	19023.219						
		12268.905	12695.168	12817.283	12559.119	12802.547	12654.92	12878.279	12950.654	12636.018	12744.014	15928.48	15200.22	13384.381	13038.172	14995.774	13197.146	13302.762	14625.551	12807.703	13083.604	14994.724	16936.912	15476.628	12883.4						
		13934.068	13201.446	12324.298	13556.101	12202.622	12515.21	13559.938	13529.842	13136.326	17480.941	13265.099	13586.811	13496.409	13598.073	14235.789	13924.381	14294.702	13996.381	13678.05	12641.941	13215.265	14267.454	13782.522	12802.498						
		13710.984	13729.611	11882.769	12905.867	12260.588	12463.572	12060.642	12994.293	12385.17	12770.656	13097.822	14103.901	13556.752	14073.063	12722.552	15919.951	13766.537	13777.143	12194.286	13738.309	12593.073	14900.743	13561.581	13477.639						
		12362.946	12159.667	12522.904	12172.113	12022.784	11537.692	12782.535	13323.24	12775.455	13737.48	12274.955	13198.082	12419.127	12331.771	17808.428	17387.893	14130.379	14303.378	14201.833	12503.451	12582.775	12526.295	14570.625	14302.29						
		16149.813	16738.586	13752.893	14292.828	16696.096	18330.344	14882.036	14904.729	13658.914	14441.127	15680.368	18305.322	12382.82	14811.016	13575.608	14125.351	13265.794	15770.252	19856.482	19821.238	12710.74	12987.463	13935.056	15006.5						
		13386.064	11869.746	12473.533	12609.222	12074.278	12486.627	15100.537	12852.353	12588.789	14116.013	12633.503	14007.771	13897.101	16977.719	13426.896	12245.273	16333.93	16752.672	13075.497	13553.271	13528.182	17111.227	12947.952	12952.013						
																															
505	23.4	9602.297	10606.298	11419.185	11299.887	11327.69	10960.044	10792.405	12358.796	13010.112	11874.132	12569.927	12014.513	11796.632	11579.136	11319.825	11084.619	11140.246	12292.39	11867.66	11407.905	11477.581	12071.174	11967.652	13097.708						
		12459.619	12605.766	14012.288	12415.637	15085.669	13663.211	14121.265	16106.453	12891.229	17313.43	12076.165	12680.317	13262.156	13007.877	13659.378	13247.749	14341.799	13172.952	12779.969	13498.752	14805.385	13309.21	14981.146	13671.17						
		11845.222	20215.922	14008.678	20446.529	12472.127	12433.628	34921.223	12659.178	14075.038	12830.998	12731.59	14472.458	13876.072	14451.916	14250.291	13281.879	13471.671	13298.334	13740.302	13395.451	12065.818	13477.184	12963.107	18591.176						
		13124.147	17020.646	12868.978	13943.118	15543.813	12080.071	13041.686	12963.808	13540.443	13048.776	12293.687	12399.368	13175.521	13993.794	13304.295	12668.533	14063.387	13548.782	12803.636	12900.549	13763.374	12456.287	18737.736	13134.885						
		13073.392	13165.474	12837.73	12177.121	12400.975	13422.971	13901.229	13591.797	13236.255	12947.589	11878.851	12797.326	12671.405	12223.07	13509.338	12511.637	15350.795	13338.745	12988.175	13411.588	15756.689	13766.792	24242.172	13926.634						
		12331.894	12092.189	12339.437	11317.907	12617.506	19484.596	12644.857	12545.847	12411.401	12981.157	12758.312	12597.073	12724.143	12738.862	15312.802	13744.771	12617.17	14854.623	13011.916	12983.852	13186.881	13070.74	13918.759	13396.588						
		11863.028	12885.767	12462.591	12504.446	12896.835	12065.19	12579.079	13482.845	13321.571	12008.222	12879.468	13103.73	13236.668	13271.175	12793.686	13742.355	12375.74	12241.214	13758.135	13305.344	13474.458	12955.737	13151.378	13525.04						
		11878.347	12284.138	13063.11	11900.64	13055.67	12122.313	13284.326	13163.565	14633.562	13155.148	12500.423	13383.889	12722.184	13065.448	13811.325	13150.738	12748.226	13310.576	13773.752	12276.187	12906.58	13487.372	13517.782	12870.073						
		16784.287	11449.077	12283.498	11798.179	12090.374	12232.026	12946.49	12903.005	12599.93	13118.579	13221.538	12388.243	13417.304	13396.405	12739.194	13440.889	13054.818	16161.084	13520.439	11795.095	12142.744	12357.932	12632.934	13054.27						
		12090.072	12621.08	12781.829	11678.484	13065.503	12410.844	12930.857	12664.705	13545.117	13479.055	12803.85	13651.688	12358.843	12745.491	12714.39	13336.691	12293.145	13300.943	12461.242	13015.061	12516.811	13380.515	12525.546	18362.717						
		12657.863	12262.116	11817.305	11943.094	11794.773	12134.58	12692.377	12199.796	13366.729	12674.913	15747.844	15746.089	13224.527	12323.306	13573.961	12329.893	13806.646	12491.396	13209.565	12926.889	14188.512	15902.422	14550.713	12573.264						
		12422.243	12475.532	12028.761	12283.105	12304.855	12620.488	11917.685	12411.885	12487.506	15991.049	13179.636	12273.073	13136.182	12121.146	14349.373	14523.389	13034.001	12236.17	13108.683	12222.099	12958.962	13153.898	11981.914	12561.458						
		13570.485	11729.503	11726.128	12615.579	11696.064	12241.506	12726.487	12014.886	12901.687	12806.057	18388.229	19411.514	12830.686	12851.738	13394.073	14413.911	12958.045	11982.3	12345.994	13161.076	12596.039	13314.716	13363.384	12989.73						
		13349.864	14164.244	12264.635	12501.494	12535.971	12847.794	15637.348	16884.713	18051.543	17962.938	12149.508	12655.227	16822.877	16667.045	13318.764	13636.512	13393.438	13104.074	17150.225	16225.093	12765.046	13029.983	18346.063	15497.995						
		12039.369	12523.426	12958.094	12617.812	13052.342	13280.502	11992.476	12115.236	13092.758	13612.95	12714.64	14459.614	13833.338	14873.879	12466.365	13766.862	15266.457	15148.035	13606.017	13616.849	14040.644	15367.662	12774.83	13364.444						
		12134.125	11807.79	12619.836	11624.858	12162.768	12098.101	13589.255	12964.429	13355.121	13654.601	12539.33	13111.893	12455.809	16019.271	13170.88	12671.683	12010.122	12532.59	13045.491	12390.204	13130.84	15984.077	11975.4	12891.924						
																															
510	23.4	10671.782	10698.821	10033.491	10837.694	10681.901	11329.142	11746.59	9853.817	12019.509	11877.632	11806.468	11372.204	11298.789	11550.59	11401.334	10852.716	11926.172	12236.079	11192.454	11576.419	10864.314	11369.296	11779.553	12715.662						
		11762.442	11710.109	11911.494	11486.689	15189.898	12628.1	12824.583	14587.508	13231.31	16104.871	12632.746	12472.708	12311.5	12677.41	12626.611	13059.168	14029.204	12322.185	12129.465	11602.388	13755.38	12915.812	14741.683	13819.771						
		11843.836	18989.672	12145.396	19579.031	12407.222	12120.83	32253.504	12999.591	13107.75	12985.911	12934.052	13104.627	13399.045	13540.923	13400.42	12687.693	12486.896	12153.009	13516.563	12588.718	12596.836	13465.979	13056.937	16873.258						
		12209.238	15148.54	12430.068	12453.735	14512.788	11463.676	12208.881	11681.3	13362.449	11524.962	12534.03	13327.629	12131.958	13391.523	12625.926	13479.146	12328.458	12657.563	11856.716	11621.037	12353.829	11930.659	17103.023	12347.033						
		12209.769	13365.283	12215.526	11772.169	12077.26	12319.445	13037.641	12873.914	12494.697	12872.99	12811.078	12128.721	12248.882	11356.53	12249.222	12601.521	15847.452	13842.48	11861.746	11965.257	14767.941	13268.614	21834.385	13292.161						
		12101.722	12205.092	12487.346	11247.076	12493.797	19931.287	12170.242	12853.26	12439.803	11723.37	11977.542	11809.912	12760.443	11917.88	15601.288	12850.157	12786.131	12669.771	13444.683	11431.636	13175.627	12865.69	13384.104	12486.781						
		11994.044	12343.864	11303.941	11043.364	12295.294	11485.093	12303.384	12399.935	12356.105	12870.277	11325.573	12208.421	12259.685	12635.478	12362.392	12677.146	11756.297	12278.263	12022.412	12701.145	12775.082	13208.107	13095.608	13761.104						
		11642.59	11269.519	12224.445	11414.61	13424.102	12851.438	12160.168	13179.383	12979.704	12649.625	12251.926	12322.374	12307.924	11183.889	13673.684	12364.167	12348.566	12350.04	12740.513	11930.843	12117.028	12156.294	12828.144	12632.761						
		15356.535	11468.449	11731.503	11492.04	11114.464	12426.978	12427.69	12760.829	11677.423	12360.719	12316.376	12491.461	12419.864	11946.365	12629.59	12666.422	13166.366	15511.127	13216.479	13311.748	12987.161	12178.169	12079.883	12174.231						
		11901.32	11521.159	11657.204	12007.726	11771.964	11616.272	12113.116	12150.616	13233.539	12569.748	12059.979	12329.868	12333.064	12545.41	12435.828	12054.717	12431.695	12691.089	12322.953	11648.164	11847.928	12448.897	11950.664	16774.766						
		11565.361	12095.593	12524.789	11882.57	11698.213	11433.951	12250.702	11925.362	12752.22	12790.366	14740.056	15067.887	12873.267	12520.726	12427.069	12226.258	13014.006	12689.284	12816.98	13146.915	13319.643	14938.103	14330.638	11817.37						
		12681.541	12007.009	11316.672	11798.381	12308.729	11175.357	11266.887	11927.22	11819.982	16092.283	11404.707	12427.64	12165.481	12084.812	13232.95	13344.22	12795.607	12189.22	12378.303	11798.399	12831.102	12764.832	12110.479	11904.314						
		13360.159	12838.786	11946.584	13508.729	11729.506	11389.481	11541.862	11543.339	13003.301	12315.8	17819.375	19092.359	12470.92	12324.571	12463.066	13720.636	12130.629	11868.749	13191.116	12255.456	11962.14	12501.272	12624.001	12647.764						
		16056.863	16280.101	13320.771	13718.348	10976.305	12607.42	11380.575	12019.749	15214.04	14711.903	12160.622	12104.826	12139.918	12614.706	12475.284	12735.931	19217.012	18140.184	12480.742	12126.168	12066.373	12178.162	13429.051	11929.715						
		11540.188	11106.942	11468.849	11377.381	11539.261	11714.267	12772.819	12047.862	14045.822	12565.071	12360.849	15291.559	11623.444	14180.035	18504.035	19620.637	13156.813	13640.782	12564.762	12099.8	13681.505	13674.637	13812.636	14438.878						
		11306.55	11113.732	12385.562	11917.093	11561.427	12439.91	13747.585	11541.362	11819.997	13249.536	11869.137	12708.721	12407.076	14118.919	12460.469	11497.567	12718.539	12603.162	11509.883	12596.277	11730.681	14731.472	12152.46	12679.306						
																															
515	23.4	9609.021	9865.413	9736.535	10261.839	9729.311	10536.727	10245.928	10038.89	11034.916	9997.19	10878.706	10156.894	10906.789	10752.188	10667.38	10998.959	11874.173	11117.409	10489.452	10503.76	10596.83	10603.776	11629.571	10566.67						
		10700.794	10850.047	11463.723	10839.652	14887	13043.951	11715.127	15186.046	12398.172	14835.107	11613.468	12443.598	12651.512	11090.054	12515.212	12318.218	13598.549	12579.25	11802.931	11764.367	13409.92	12514.684	13340.142	12198.572						
		10837.965	17068.67	12400.067	17027.348	11364.5	11509.068	29091.717	12231.757	11667.431	11608.703	12258.21	11334.733	11591.952	13033.026	12444.979	11944.832	13044.352	12259.311	11924.42	12629.774	11781.92	11680.734	12228.114	16693.977						
		11701.952	14356.505	11122.36	11546.208	12932.193	11296.644	11206.081	10947.806	11590.348	11347.373	11446.109	11670.636	11645.026	12195.977	11188.652	11098.448	11666.092	11105.369	11631.277	12364.382	13088.743	11397.857	16295.598	12203.839						
		11425.574	12470.426	11157.37	10941.731	11156.003	11246.32	12319.497	10956.648	11924.055	12053.085	11633.772	11889.476	11428.322	11913.517	11595.525	11963.99	14899.639	12816.016	12043.925	11431.505	12070.64	12100.069	21108.408	12323.262						
		11034.412	11716.271	11224.237	10963.651	10984.799	17483.314	10854.399	11754.512	11775.396	11702.283	11185.826	11075.243	11921.012	11495.519	13437.102	11711.178	10869.795	12052.969	12135.448	11581.572	12508.236	11810.689	13147.561	12030.232						
		10786.536	10765.572	10831.698	11706.577	10655.913	11522.127	10740.847	11449.492	11279.373	11275.33	10751.052	12122.972	11339.807	10817.459	12449.312	12105.844	11415.665	12742.276	11784.64	11677.053	11351.139	12026.554	12893.303	12357.273						
		10570.494	11332.798	11535.228	10826.041	11168.615	11438.322	11437.73	12263.43	12868.81	12257.126	11149.324	10604.269	11336.493	11515.141	13262.365	11967.474	11905.68	11932.457	12023.953	11096.802	10956.426	12076.099	11405.293	12112.62						
		14266.132	11785.159	11238.596	11100.073	10549.547	10093.499	10620.869	11222.159	12070.719	11681.968	11712.525	11468.947	12651.863	10776.261	10701.491	10932.482	11607.135	14392.392	12944.445	11872.759	11392.735	12105.104	11220.496	11462.682						
		10237.265	10013.952	10726.487	10900.557	10633.393	11168.878	11905.448	11069.481	11929.092	12029.576	12094.003	12008.522	11275.856	11626.034	12034.568	11309.702	11866.253	11612.867	12146.354	12288.221	11103.492	11192.471	12342.29	15602.371						
		10994.072	10559.553	11066.356	11610.539	11137.979	10672.197	11660.571	11435.254	10983.581	11302.182	12822.892	13138.151	11811.507	11706.686	12386.756	11623.252	11708.483	11931.434	10883.716	11820.759	12322.115	14007.898	13046.75	10657.878						
		11530.131	10765.586	11530.806	10836.548	11458.434	11008.994	10826.6	11607.246	11252.426	14167.407	11368.866	10700.481	11599.139	10802.297	12663.768	12853.485	12295.536	11914.277	12612.152	11541.586	11842.353	11418.051	11888.917	12063.407						
		11980.781	11281.305	11058.981	11266.149	10959.357	11335.727	11575.847	11828.009	11324.629	10714.253	14071.402	15045.535	11001.018	10828.347	11558.504	13114.917	12185.45	11445.192	11703.747	10885.771	11159.338	11732.135	11973.597	10862.46						
		11229.27	9941.066	11589.784	9937.481	10873.999	11225.898	10447.03	11656.688	12281.513	11300.688	12473.979	11483.669	11377.433	11353.396	14835.263	15348.109	12320.124	12446.354	11568.859	12203.584	12046.619	11303.553	12513.071	11288.991						
		12248.943	12525.549	10972.445	10987.478	10736.321	10352.952	10618.251	10887.998	11206.477	12318.698	11367.704	13982.644	12985.492	14172.603	11615.45	11522.424	13825.019	13911.452	12921.724	13566.474	11880.709	12311.805	13508.279	13515.809						
		10469.101	10443.71	10573.58	11972.051	13037.132	12545.755	16485.883	15881.584	11361.437	12137.71	11230.917	11528.827	12323.071	14361.201	11987.48	11426.999	11893.873	11675.757	11554.354	11605.034	11964.063	14160.515	12601.745	12285.91						
																															
520	23.4	8663.392	9704.792	9129.217	9152.821	9230.066	9150.814	9399.508	9634.764	10070.792	9529.977	9353.008	9051.512	9775.026	9776.505	9453.497	10190.856	9647.352	9147.893	9594.767	9183.159	9281.516	9642.641	10045.546	10515.906						
		9705.253	9892.625	10624.744	9987.718	13247.711	10830.373	11814.091	12553.065	10473.737	12522.602	9689.908	10645.974	10151.13	10504.499	11395.482	11345.908	11685.067	10867.665	11254.81	10316.218	12273.351	10519.39	11476.146	11083.049						
		10395.116	14486.505	10090.553	15703.305	10184.868	10389.855	22625.174	10532.838	10568.142	11220.225	11481.74	11068.368	10840.415	11538.697	11348.1	10650.314	11945.513	10358.066	11414.016	11794.516	11207.615	11123.768	11376.752	14926.367						
		10742.676	12924.851	10115.212	10986.576	11988.722	9780.209	9935.238	11028.251	11727.791	10711.837	10570.684	11061.503	11250.79	11774.44	10979.013	11430.655	11037.223	10886.778	10595.679	10410.353	11630.435	10734.378	14201.346	10590.633						
		10671.891	10421.896	10427.336	10203.458	10353.443	10596.906	11648.824	11365.805	9892.707	10519.529	10246.579	11029.159	11023.098	10742.658	10830.128	10358.279	13868.77	10270.921	10950.532	11427.114	10479.3	11900.441	16872.16	10465.638						
		10535.649	11158.603	9914.748	9984.08	10052.871	15292.611	10776.502	10441.468	11071.361	9827.311	10333.909	10649.149	10721.713	11012.975	12614.939	10169.463	10977.729	11561.121	10838.493	10486.234	11613.022	11208.289	11708.54	10759.89						
		9985.351	10714.631	9658.456	9287.491	10581.405	10567.293	10070.527	10401.247	10716.883	10966.045	10107.294	10743.77	10507.012	10546.116	10196.73	10229.18	11110.885	10233.867	10828.438	10071.426	11160.79	11097.271	10694.934	11672.514						
		9621.73	10747.766	9579.667	10339.203	10714.524	10614.92	10334.316	10749.905	10755.81	10371.49	10397.173	10471.85	10009.192	10079.487	11347.459	11353.09	10974.081	10373.878	12044.851	10137.908	10791.056	10019.418	10751.414	11351.127						
		12842.877	10652.775	9377.949	9774.208	10022.894	10164.01	10506.824	10093.218	10521.9	10855.638	10477.937	10129.267	10579.696	10469.205	10669.92	10688.239	10612.731	14524.512	11668.306	10900.314	10159.784	10233.006	10161.539	10539.949						
		9800.768	10646.342	10001.808	9817.857	10252.475	10240.296	10330.152	10505.298	10467.715	9536.856	10583.828	10439.679	9945.471	10980.857	10025.488	10208.843	10379.938	10220.041	9916.764	10103.335	10893.968	10675.399	10624.196	13445.101						
		10548.268	10671.756	9376.669	9809.377	9474.66	10339.693	10059.239	11398.518	10846.029	10683.352	12238.108	13315.527	11165.567	10813.053	10966.504	10278.538	11165.936	10744.83	10497.277	10400.62	10764.555	13091.481	12115.494	10531.258						
		10744.474	9924.012	10160.533	10543.624	10116.658	10435.89	9913.983	10479.323	9790.48	13072.67	10533.508	10354.242	10284.149	11566.512	12016.052	10826.854	10388.103	11080.335	10510.389	10768.974	10754.848	11225.343	10563.121	10669.205						
		12096.417	9778.877	9910.876	10563.108	9688.217	9913.319	9978.693	10777.22	10211.867	10814.567	10985.714	11274.203	10885.032	10401.261	11009.088	12042.351	10685.668	10418.052	10910.34	10640.829	10401.854	10821.549	11053.594	10908.875						
		9792.499	9947.417	9345.512	10070.185	9767.354	10613.934	10452.081	10463.708	13206.022	12913.979	10277.701	10593.234	10745.945	10630.739	10554.391	11160.887	11048.475	11038.326	10950.589	10675.498	10360.128	10528.521	11522.647	11387.91						
		9391.299	9841.08	10336.368	9363.632	14683.464	14102.431	10108.902	10777.211	9909.897	9879.438	10367.788	12449.015	9819.267	12575.229	10467.332	10777.048	11596.085	12215.086	10213.7	10631.904	12024.001	12519.909	16438.832	15565.567						
		13248.619	13237.422	10765.394	9518.846	9899.106	10032.713	11233.455	10375.309	10139.109	10812.236	10391.784	10765.075	14005.414	14765.004	10253.096	9543.423	11018.653	10298.582	15144.125	15342.926	9948.213	13648.396	10357.699	10636.95						
																															
525	23.4	7863.368	8240.902	8009.16	8539.069	9112.439	8444.531	8677.754	9239.865	8902.397	9344.197	9079.211	8619.951	8960.137	9085.835	8594.584	8880.537	9797.009	8874.461	8851.637	8458.634	8752.562	9145.807	9688.073	10376.688						
		9424.483	10146.405	9992.387	11236.449	12850.993	10128.264	9961.296	11733.525	10678.658	10585.045	10004.478	10573.829	9729.018	10704.231	11057.737	10684.641	11047.094	9805.442	9646.027	10100.273	10667.674	10523.788	11113.706	12618.331						
		10093.435	13202.83	9596.284	13962.09	9513.488	9383.292	21533.523	9895.849	10411.349	10013.974	10600.449	9504.018	10780.704	10061.545	11131.015	9108.411	10547.342	10055.008	9882.209	10729.6	10342.907	10786.542	10564.93	14371.37						
		9911.035	11262.132	9645.71	10017.108	10767.136	9968.361	9930.961	9668.592	9945.339	10141.694	9437.223	10142.659	10796.066	11052.29	10104.164	9801.786	10567.731	10165.462	10161.557	9242.615	11186.908	10074.218	13751.503	10042.339						
		9906.75	9769.201	10196.876	9111.01	9441.339	8898.32	10297.723	9751.795	9623.218	10290.091	10278.332	9872.466	10583.916	10204.836	10114.249	10085.461	11909.035	10650.168	9983.605	9328.06	11110.584	9943.288	15652.37	10109.115						
		8843.288	9424.217	10071.431	9370.586	9280.213	14397.77	9323.429	10019.967	9858.264	10134.961	9823.205	10461.275	9327.176	10129.108	11365.403	10224.152	10913.21	10823.32	9699.672	10820.827	11047.527	9693.273	10516.662	10231.571						
		10328.442	9739.23	9676.763	9532.061	10462.257	9203.234	9602.368	10343.022	9496.995	10133.151	10403.021	10017.078	10355.501	9679.602	10624.241	10515.444	9708.048	9746.257	10443.135	11591.422	10143.055	10521.22	11165.878	10542.524						
		9243.802	9222.805	9949.677	9088.88	10382.674	9901.795	9715.487	10151.518	11057.977	10718.187	9557.12	9963.862	10604.926	9894.955	10688.359	9195.76	10581.165	10069.693	11638.961	9851.162	9844.69	9457.058	10935.124	10287.311						
		11732.571	9101.093	9079.538	9424.321	9638.302	9004.701	9847.996	10513.358	9814.554	9706.877	10145.817	9314.54	10720.496	10226.316	9503.832	10316.368	9994.203	12588.329	10881.81	11363.727	9990.264	10695.16	10049.678	9932.644						
		9527.281	9168.856	8912.129	9060.201	9213.353	8984.04	9819.24	8935.573	9628.143	9987.732	10660.061	9900.807	10702.865	10262.638	9980.999	9786.73	9815.425	9905.784	9628.409	10756.88	10094.969	10517.969	10849.759	12671.332						
		9772.616	9968.675	9754.206	9237.941	10289.413	9963.982	9735.049	9720.754	10292.032	9880.765	11441.48	12693.509	10245.135	9841.6	10838.614	9512.106	9656.982	10429.685	9536.023	9610.299	10609.129	11296.713	11694.099	10116.841						
		10012.101	9634.372	9003.493	9481.913	9229.98	9745.785	10177.464	9557.861	9640.888	12780.185	10053.365	9484.819	9601.122	9575.923	10109.638	10540.605	9797.257	9806.28	9986.98	10123.333	9779.441	9748.223	9688.709	10146.861						
		10432.18	9786.794	9298.851	9699.843	9543.016	9512.334	13071.748	12246.598	9152.191	9394.581	10508.295	10760.881	9368.846	9624.093	10535.416	11708.396	9749.046	10749.499	9702.402	10032.901	9588.446	10324.903	10343.68	10520.1						
		9477.611	9456.065	9112.762	9657.441	13631.329	15106.111	9448.456	10041.846	9887.449	10597.365	9812.006	9520.035	15363.862	14787.414	9994.37	10115.481	14194.884	12257.249	9439.974	9537.512	9086.346	10015.156	10658.673	9665.467						
		9496.679	9505.131	9775.107	9343.786	9744.551	9223.57	9586.706	10014.999	13583.914	14410.535	10645.396	11295.394	9604.846	10882.473	9743.745	10513.002	10469.32	11907.686	9691.328	9282.227	10189.302	9816.492	11820.724	11168.511						
		10756.242	11088.414	11949.885	11513.291	9629.65	10090.486	10617.785	9535.626	9565.613	9918.556	10104.706	10399.855	9167.003	11380.264	10779.182	9830.44	10435.233	9764.016	10178.244	9308.487	9844.637	12016.593	10825.589	10319.456						
																															
530	23.4	7157.423	7764.224	7320.323	8346.099	8558.467	8279.804	8494.206	8533.784	8644.163	9079.734	8844.741	7903.925	9090.77	8152.492	8423.849	8679.776	7835.094	8666.912	8384.396	8371.182	8261.975	8620.723	9022.751	9625.939						
		8396.946	9144.808	9623.662	8455.44	12405.666	9203.709	9925.233	10475.958	9685.731	11516.129	9448.891	9799.973	9308.99	9534.917	9696.325	9683.185	10362.36	9171.317	9538.868	9633.397	10495.25	9727.867	11268.2	10885.36						
		8870.27	12892.282	10067.585	13233.577	9769.452	9627.886	17749.453	8918.793	9499.001	9200.849	10225.483	10607.752	9420.212	10527.412	9959.94	9843.013	10221.52	9187.432	10336.744	9963.649	9790.228	10922.54	9919.461	12508.24						
		9966.945	11068.647	8996.021	8580.47	10760.449	9466.287	9769.197	9439.963	10840.371	10135.151	9705.444	9440.94	9621.996	9998.264	9537.192	9884.207	9337.152	9763.266	9545.133	10156.607	9031.782	9529.507	12448.22	9278.646						
		9669.991	9336.287	9559.079	8807.511	9610.051	9225.002	9883.259	10460.961	9970.903	9580.771	8481.395	9470.167	9088.173	9483.274	9555.242	9401.951	12067.765	9763.958	9408.894	9554.761	10300.542	10135.971	14132.759	10098.423		9123.711				
		9448.182	9160.978	9062.069	9015.293	8620.399	13802.446	8583.846	9411.066	9032.879	9113.018	9470.806	9549.25	9711.095	9535.865	10625.103	9590.956	9992.069	9254.153	9656.308	9248.342	9992.378	9021.655	9575.7	9499.356		9591.404				
		9259.842	9396.673	9266.842	9724.053	9707.968	8857.888	8994.721	9170.832	9059.152	9886.604	9777.145	9187.111	9123.711	9591.404	8782.601	10338.026	9208.428	10107.141	9433.065	9067.758	9740.123	9406.28	10223.258	9722.969		8782.601				
		8343.117	9076.992	8906.192	8466.007	8972.055	8752.275	8985.389	8576.809	9474.346	9816.747	10774.862	9557.339	9070.235	9582.403	9988.471	9500.507	10640.099	9724.27	9895.61	8567.305	10589.126	9073.865	9448.103	9113.157		10338.026				
		11011.203	9442.469	8371.494	8678.841	9063.275	8723.536	9787.892	9476.226	8137.939	9644.654	8938.959	9638.815	10520.437	9151.104	8910.563	9400.898	9141.289	11986.474	10320.23	9753.057	9146.521	9529.07	9454.236	9188.313		9208.428				
		8417.813	8004.888	8661.839	9090.822	8587.575	8654.993	8685.317	9141.99	8368.664	10170.451	9471.579	9820.817	8975.016	8821.934	9607.642	9551.641	10521.946	9767.514	9335.251	9036.686	9296.169	9070.079	8926.32	12324.409		10107.141				
		8800.859	8583.484	8851.576	9071.371	9474.782	9482.535	9515.468	9665.219	9837.211	9504.013	11397.871	11177.565	9826.907	9616.267	10632.424	9723.896	9889.78	9504.501	9658.665	10074.492	9470.494	10360.796	10759.715	9806.223		9433.065				
		9945.481	9183.861	8799.843	9567.13	9043.639	8903.22	9458.736	8626.807	9763.662	12234.674	8776.93	9867.413	9420.353	9061.324	9543.084	10437.176	9770.948	9591.237	9580.366	9354.001	9158.08	9358.067	9466.41	9259.436		9067.758				
		9770.205	8989.134	8785.357	9497.579	9421.594	8615.73	8583.363	8899.352	9296.793	10149.171	9197.429	9522.701	9109.49	9547.303	9344.107	10869.563	9712.294	9356.411	8863.552	9550.389	10202.815	9622.843	10228.292	9245.468		9740.123				
		9512.937	9001.461	8921.12	8648.989	9392.607	8503.348	8727.222	9222.148	8775.311	10438.126	12492.555	12000.182	9602.06	8872.993	13312.833	14427.441	9340.367	10023.151	9267.705	9113.332	9914.292	9293.989	11602.252	11772.656		9406.28				
		11768.802	12392.216	8781.002	8756.755	9566.704	9504.786	8937	8999.778	10100.379	11264.897	9394.374	10646.836	9983.756	10759.188	9005.549	9660.168	8831.648	10680.453	9990.163	9521.039	9324.848	10441.031	9160.444	9905.811		10223.258				
		8994.19	8792.801	9040.39	8662.585	9317.127	9218.823	10013.715	9238.532	9940.819	9124.077	9413.53	9664.418	9617.462	10257.888	9279.002	9139.5	12034.775	11422.811	9738.277	9430.147	8867.592	12216.99	9346.901	9254.797		9722.969				
																															
535	23.4	7372.802	7805.221	7492.826	8587.621	7412.042	7105.421	8008.038	7615.564	8384.272	7863.261	8310.071	8029.905	7566.167	8326.303	7543.196	8437.582	8869.337	8124.861	7765.752	7933.767	7722.248	8008.963	7604.052	8469.614						
		8173.035	8392.953	8440.859	8510.096	11345.371	10127.227	9258.762	10611.704	10236.577	10668.245	8713.442	9048.289	9567.548	9146.964	9056.226	9882.928	9083.037	9183.623	9458.695	9517.064	9724.281	9183.336	9501.102	10291.335						
		8945.677	11113.701	8148.56	12442.722	8339.448	8998.905	16811.42	8920.092	8805.806	8802.915	9202.284	9121.011	9732.183	8467.682	8939.078	9135.915	9250.679	9105.171	9173.711	9255.403	8461.577	9350.827	9070.541	11635.796						
		9114.235	9596.34	8162.058	8728.052	9307.588	8274.054	8497.055	7921.022	9581.063	8747.634	9204.169	9279.611	9694.935	9705.075	8501.701	9252.689	9214.456	10060.334	8789.958	8433.184	9495.277	8722.173	11648.058	8798.433						
		9054.389	9016.299	8540.426	8196.905	8255.762	8569.812	8842.317	8746.249	8968.353	9286.467	9254.264	9472.585	9252.635	9407.854	8696.443	9843.954	9867.166	8562.708	8354.156	7785.707	9294.899	9020.447	12994.67	8811.34						
		8781.043	8854.177	9131.313	8590.242	8993.048	12992.427	8678.998	8798.994	9335.476	9186.502	8709.843	9285.193	9134.824	10057.106	9482.207	8725.952	9292.142	9383.495	8776.993	9080.479	10616.325	9326.114	8865.256	8745.916						
		8406.599	9168.523	9541.016	7960.628	8773.383	8414.975	8669.805	8490.265	9112.188	9284.244	8352.328	8815.92	9553.413	9017.629	8783.77	9176.383	9036.344	9527.039	8665.931	9260.427	9184.056	8759.24	9460.438	9543.665						
		8486.96	8418.159	9143.846	8017.832	9048.22	9202.419	8466.766	8626.003	9698.266	8523.135	8432.153	8488.024	9405.442	8788.633	9269.534	9684.333	8550.929	9169.807	9803.431	7968.388	9253.849	9110.856	9160.165	9160.769						
		9445.073	8221.817	8310.793	8724.529	8317.067	8053.082	8927.621	8879.208	8992.904	8902.239	9327.146	7760.658	9286.727	9693.766	9447.352	9327.902	8975.732	11385.945	9308.789	9310.496	8286.429	9459.402	8467.557	8683.474						
		8416.521	8522.347	8143.402	8759.938	7315.793	8902.516	8678.162	9037.823	8612.224	8602.115	8964.268	9150.814	8967.883	8791.263	7881.217	9483.878	8453.662	9183.735	8785.518	8256.785	8902.133	9302.042	9293.608	11906.511						
		9193.226	8835.099	8388.472	8293.557	8769.31	8376.581	8135.942	8397.858	9331.862	9135.63	9953.662	11068.222	8449.378	9082.552	10271.747	8877.306	8979.007	9026.327	9487.081	9039.55	8770.026	9767.26	9274.342	9315.812						
		8522.127	8380.356	7645.383	8277.867	8506.963	8466.639	8832.647	9807.675	8329.483	11022.485	8769.92	8686.543	8349.751	7867.093	9380.685	9366.366	8472.64	8804.549	8225.996	9221.716	8384.739	8856.093	8812.213	8652.904						
		8560.863	7947.849	8367.223	8794.379	7922.413	8615.574	8756.209	8330.174	8977.158	8890.875	8914.364	9196.047	12309.679	12698.705	9081.551	9961.544	8737.199	9120.921	9021.579	9471.092	8821.307	9453.573	9306.139	9511.229						
		8518.294	8409.028	8120.075	8316.528	7936.811	8264.729	8519.795	9261.977	8805.196	8957.313	9452.499	9152.434	8855.205	8144.073	11415.181	11336.261	13479.113	12996.897	8610.872	8337.179	8933.78	9423.222	9103.344	9324.458						
		8588.026	8284.752	11432.064	11491.27	9584.946	10133.479	9418.452	8549.556	8305.713	8841.083	9632.968	11160.518	8975.418	10261.1	8601.481	9514.31	9375.346	10128.688	9946.172	10636.337	8874.929	9129.734	8173.798	8993.539						
		8500.547	8745.698	8038.277	7926.865	8044.98	7990.565	9126.385	8360.764	11128.842	10285.378	8852.262	8183.099	8865.047	9601.535	10296.66	8591.578	8814.52	9367.581	9136.88	8939.385	12670.893	14900.957	12281.405	12238.735						
																															
540	23.4	6675.178	6473.813	6704.185	7170.975	6958.855	6489.605	7359.598	7447.241	7384.814	7510.914	7155.148	7387.361	7694.405	8133.412	6892.895	7557.709	7986.572	7147.969	6934.1	7610.178	7515.83	7107.877	7560.9	8259.167						
		7734.938	7921.732	8187.074	7248.645	10076.224	8415.403	8559.005	9001.349	8604.872	8891.362	7820.119	8589.613	8268.031	7851.103	8833.618	9180.386	9049.604	8675.127	8700.103	8194.218	9265.787	7938	9233.665	9434.006						
		7322.488	9864.578	8074.954	9528.152	7252.332	8110.282	13819.019	7991.479	8264.54	8990.097	8765.257	8996.526	8502.129	8930.322	9322.919	8732.362	8589.229	8014.337	8207.375	8682.68	8128.085	8444.165	8749.104	10395.548						
		7953.399	9901.92	7685.04	7903.991	8552.5	7770.019	8116.31	8624.19	8657.128	8110.044	8230.839	8309.982	8036.798	8346.498	8204.558	8687.313	8731.615	8094.375	8066.739	8300.031	9117.738	7898.156	10345.331	8480.599						
		7879.905	8098.971	8540.49	8116.025	8207.972	7933.404	9252.787	8076.393	8617.971	8365.631	7881.519	8035.049	8614.431	7701.369	8224.953	8226.58	9493.146	8714.227	8524.361	8155.244	8040.729	8797.03	12550.835	8471.932						
		8061.989	7149.524	7808.993	7450.667	7227.214	11530.762	8489.584	8107.119	8323.837	8210.381	7906.423	8157.57	7518.242	7587.305	9331.573	8607.007	8623.254	8269.947	8123.133	8133.207	8861.528	7869.804	8599.829	8477.115						
		8201.222	7872.868	7491.569	7568.441	8099.808	7520.737	8544.658	7491.333	8133.75	7849.935	8187.909	7751.081	7991.368	7798.345	8307.084	8123.424	8002.866	8854.689	7998.37	8757.728	8326.22	8584.251	8314.666	8382.378						
		7645.916	7633.181	7943.064	7614.928	7969.093	7698.947	8007.712	7965.946	8788.271	7987.799	7700.792	7397.726	8698.95	7800.971	8234.354	8008.751	8103.709	8770.652	8450.99	7405.043	8042.759	7804.918	7878.987	8547.92						
		9240.984	7608.308	7405.379	8493.682	7802.474	7504.586	8023.74	7703.539	8150.678	8613.272	7810.959	7932.914	8585.37	8124.172	8278.12	8307.724	8316.924	10268.518	8625.031	8828.353	7379.955	8103.974	8342.814	7697.721						
		7524.966	7842.796	7042.748	7935.534	7556.767	7586.51	7402.558	7375.997	7038.057	7710.357	8458.746	7839.053	7840.178	7062.256	8272.798	8486.802	8652.979	8523.629	7664.016	7341.232	7644.114	8881.62	8349.276	9800.946						
		7640.016	7799.314	7349.041	8327.521	7861.361	8031.784	7603.185	7702.32	7504.595	8634.799	9581.388	9994.198	8820.22	7783.624	8089.796	8700.708	7715.514	8156.796	8754.062	8520.071	8983.782	9034.597	9243.525	7677.31						
		7727.5	7752.714	6947.167	8112.747	7367.277	7484.694	8138.004	7777.802	7285.484	9712.388	7671.563	7760.121	7615.488	7749.577	8299.74	8820.111	7731.96	8487.024	8513.763	8611.977	7772.473	7875.643	8386.426	8134.698						
		7394.498	8551.588	6989.313	8201.172	7355.147	7094.646	10019.5	10282.448	7400.934	8097.802	7733.014	8479.877	8483.982	7583.629	8502.82	9342.178	7948.38	8774.58	8013.866	8793.83	7881.026	7901.999	8855.021	7699.704						
		8123.855	7613.037	7559.361	7553.228	7678.417	7122.955	7661.583	8477.974	9822.485	10912.116	11045.559	11879.627	10664.743	10999.023	8064.803	7471.32	8131.928	8643.388	8036.971	8079.067	8438.07	8659.501	9199.865	8157.791						
		8209.575	7226.494	7316.707	7039.765	7390.263	8322.015	8051.854	8285.13	8173.735	8887.475	7642.176	9180.505	8802.895	8813.655	11917.116	12798.974	7945.542	8420.711	8430.036	7743.144	8403.527	8217.057	8179.273	8722.609						
		9507.85	9335.267	7496.033	8608.971	8370.89	7691.729	8747.731	7162.964	8079.175	7620.908	7753.026	8023.05	8036.459	8670.931	8020.071	7946.587	9254.646	8431.818	9714.221	10222.932	8064.658	10670.734	7930.943	8780.972						
																															
545	23.4	6075.868	6621.853	6427.701	6908.834	6717.831	6170.545	6404.257	6298.103	6258.403	6890.438	6313.943	6337.886	7069.228	6634.594	6552.556	6699.908	6605.832	6769.283	6439.7	6138.821	7010.757	6353.759	7442.599	6665.698						
		7118.644	7486.396	7603.484	6970.025	9444.535	7679.556	7473.798	8678.961	7831.654	8342.334	6629.109	7515.543	7031.596	7108.631	8556.31	8212.42	8301.23	7455.552	7582.77	7226.117	7880.435	7561.24	8186.771	8328.183						
		7339.94	8744.896	7195.715	9157.267	7728.847	7543.856	11798.479	7605.622	7300.386	7431.097	7660.468	7464.342	8042.818	8367.436	7816.573	7254.4	7178.549	7795.654	7981.817	7307.063	7205.508	7899.483	7651.444	9319.881						
		7346.167	8119.242	7109.535	7682.493	8140.267	7487.607	7774.251	6972.428	8165.761	7074.235	7837.732	7346.086	7917.21	7883.921	7228.147	7657.229	7290.232	8112.276	7053.7	7521.209	7619.66	6940.225	8959.308	7304.491						
		6552.487	7243.827	6670.985	7020.096	6666.647	7482.777	7643.051	7478.571	7292.818	7591.744	7689.81	7399.065	6795.797	7579.315	8350.541	7232.676	8201.736	7258.044	6940.921	7307.377	7731.09	7569.239	11062.119	7967.693						
		7499.288	7184.744	6414.057	7064.089	7535.8	11363.601	7108.836	7512.501	7327.374	7280.389	7253.896	7502.5	6898.63	7755.38	7637.18	7794.447	7430.229	8246.462	7728.026	7325.069	7921.269	7309.019	7793.716	7141.192						
		6859.827	7066.418	6832.642	7068.44	7594.553	6833.496	7144.105	7308.944	7056.305	7216.55	7756.412	8198.372	7194.295	7253.291	7447.884	7271.162	7308.354	7298.154	7757.429	7498.406	7711.907	7418.669	7451.272	7675.155						
		6844.266	7071.372	7115.604	6627.78	8250.162	7048.521	7058.627	7039.456	7626.712	6873.436	7539.418	7129.252	7248.025	7320.817	7271.252	7534.126	7398.161	7777.901	7685.692	7340.259	7163.102	7435.479	7574.433	7661.259						
		7667.325	7366.343	6425.751	7159.361	7306.851	7218.212	7301.368	6673.136	7467.287	6776.926	7161.784	7199.699	7488.519	7416.844	6783.221	7530.855	7879.932	9915.063	7788.406	6734.671	7362.257	7735.642	7519.242	7570.426						
		6994.443	6916.732	6801.888	6459.347	6934.246	8189.752	6904.648	7416.184	7060.936	7212.166	7721.814	7138.009	7587.607	7528.496	7650.282	7460.719	7948.205	7545.618	7511.906	6831.423	7576.558	7675.652	7323.588	9236.045						
		7066.655	7412.485	7176.773	7068.728	7085.353	7316.161	7589.642	7887.167	7992.686	7631.679	8367.974	8283.491	7290.758	7507.215	8011.184	6939.93	7004.085	7452.603	6810.651	7534.992	7653.593	7900.476	8093.313	6984.638						
		7515.109	6366.325	7242.397	7023.372	7002.474	6218.454	7065.485	7730.405	7561.938	9272.896	7783.15	7417.17	6968.491	7341.363	7537.724	7414.725	7222.08	7058.778	7301.05	7055.116	7267.37	7164.305	7874.577	7443.153						
		7972.348	7475.458	6605.903	7589.14	6562.816	7015.556	6532.094	7160.012	7541.482	7048.936	7772.732	7884.469	6715.963	6909.064	7098.751	7915.476	7876.488	7494.908	7044.642	7585.805	9186.692	9613.409	7769.563	7212.941						
		6990.148	6386.695	7357.908	7750.934	9713.358	9956.147	10084.354	10839.562	7474.968	7368.387	7062.113	7218.096	7481.638	7375.199	9173.304	9155.143	7923.214	7369.975	7956.451	7892.411	7246.694	7001.542	7949.951	7916.164						
		7523.625	6834.619	6868.394	7227.958	6861.892	6964.042	6879.239	6743.195	8308.37	7901.382	7745.966	7940.624	10848.768	11417.47	8177.644	7224.402	8492.121	8948.837	7245.624	7222.322	7720.985	7464.604	7660.356	7369.195						
		8684.544	9024.742	6085.677	6346.078	7060.423	7637.758	7226.128	7091.128	7069.771	6840.903	10486.499	10815.207	7876.065	7400.648	8073.486	8037.877	7602.665	7703.467	6705.318	7012.889	7284.093	8586.791	7098.202	7240.563						
																															
550	23.4	5911.062	5500.114	5977.021	5813.076	6067.442	6096.358	5940.75	5802.782	5862.154	6723.525	6352.175	5936.508	6082.252	6354.355	6072.53	6159.475	7066.412	5869.37	5911.805	5543.353	5618.718	6051.912	6331.14	6776.836						
		5975.381	7123.903	6974.544	7031.864	8104.825	6798.083	6990.355	7548.443	6910.097	8450.003	6497.291	7042.874	6349.872	7019.746	7394.846	6900.357	7682.247	7060.328	6373.927	6592.014	7356.642	6712.176	6879.347	7257.838						
		6658.555	8317.031	6742.562	8415.261	6122.054	6222.486	9872.059	6893.949	7034.755	7212.075	7146.107	7123.249	7282.662	6960.913	6479.622	6692.071	7086.073	7032.441	7096.566	7278.67	6900.982	7156.385	7426.341	9061.367						
		6451.866	7473.266	5883.206	6261.345	7434.697	6564.521	6559.854	7061.91	6815.599	6715.763	6709.67	6574.198	7263.094	7650.615	7259.722	6674.296	6651.538	7232.167	6645.781	7168.783	7397.753	6831.102	8903.341	7919.371						
		6504.633	6657.552	6547.502	6856.469	7038.58	6970.701	6852.519	6272.946	7397.463	6456.848	6301.587	6766.459	6120.561	7225.386	6206.928	6821.492	7453.823	6240.732	6980.086	6474.37	7348.838	7061.849	9808.75	7236.468						
		6466.456	5755.073	6831.507	6161.371	6673.213	10648.193	6302.214	5941.285	5903.205	7257.363	6839.252	6803.578	6420.683	6470.045	7948.208	6900.312	6523.887	6761.609	6794.348	6562.344	6756.813	6746.27	6936.873	6613.752						
		6390.376	6413.213	6397.484	5778.269	6469.9	6209.486	6473.045	6695.971	5701.002	7153.458	7032.908	7073.613	6774.357	6789.403	6455.676	7011.841	6487.777	7101.335	6754.17	6421.592	6684.555	7282.129	7198.764	7541.834						
		6136.526	6064.341	6142.397	6365.909	6715.975	6803.168	6714.854	6896.368	7251.115	6779.435	6465.773	6662.602	6926.655	6778.174	6612.398	6734.51	7282.467	6464.395	6677.163	6758.609	7068.401	6664.33	6805.892	6592.646						
		6890.785	6473.732	6317.54	7009.901	6244.198	6256.266	6759.524	6969.768	6730.322	7062.977	6960.986	6832.984	7357.912	6365.473	6563.661	6976.604	6946.179	8386.678	7940.167	6610.402	6781.304	7265.941	6497.552	6517.775						
		6656.645	6773.354	6968.452	6088.211	6025.759	6182.496	6721.176	8007.566	6800.792	6362.246	6491.25	6469.358	6530.087	6490.173	6463.201	6374.314	6984.414	7162.413	7002.748	6413.324	6344.815	7068.355	7659.689	8795.021						
		6301.61	5682.133	5547.274	6188.092	6633.504	6627.725	6630.702	6560.628	7039.409	6657.96	7101.771	8107.288	6826.488	6894.263	7369.34	7183.289	7634.969	6652.388	6911.113	7025.223	7256.354	7339.174	7820.533	7152.057						
		7116.748	5871.445	6592.387	6383.814	6477.706	6422.534	6547.793	5913.502	6494.154	8400.26	6422.862	6273.676	6646.394	7132.856	7905.625	6148.775	7003.279	6817.866	6993.826	7516.586	6622.127	7630.126	6447.757	6948.7						
		7939.729	8104.462	6066.973	6182.563	6401.518	5601.316	7006.247	7401.633	6308.567	7578.236	6539.893	6875.003	6509.603	6493.102	6991.669	7123.983	6785.555	6547.057	6727.021	6135.934	6012.929	7315.226	6781.207	6746.042						
		5498.594	6261.071	6205.332	6376.564	5662.185	6489.771	6184.944	6271.791	7995.334	8957.405	6196.454	6891.279	9292.884	8844.644	6069.306	6227.476	7272.663	7491.784	6564.571	6764.046	6434.131	6651.22	6701.588	6853.652						
		6156.628	6640.797	8912.736	8621.546	6287.572	6399.4	6446.609	7120.024	6726.802	7282.655	7015.117	7889.777	6431.109	7285.658	10212.608	10554.571	8720.869	8935.732	9690.066	10378.279	10291.573	10119.995	7194.774	8024.873						
		6534.075	6179.183	6306.024	6549.896	6476.234	6426.233	6694.356	6469.602	6231.889	7029.813	8119.644	8832.71	6953.133	7385.59	6478.067	6790.394	6491.596	6297.762	5858.404	6310.893	6913.148	8204.068	7083.206	6889.961						
																															
555	23.4	5364.797	5520.774	4912.558	5479.547	5172.332	5699.5	5247.504	5464.026	6162.783	5756.89	5814.881	5183.2	5135.984	5960.433	5588.878	5603.893	6454.522	5119.293	5717.418	5805.781	5206.983	5368.082	5886.101	5930.607						
		6470.349	6352.924	6916.1	5817.875	7838.154	7036.959	6850.376	7715.39	7022.899	7256.957	6727.132	6310.65	5721.825	6323.022	6518.602	7302.398	6914.432	6528.028	6488.432	6322.824	6895.841	6726.535	6697.077	6493.155						
		5934.454	8104.753	6428.382	8083.906	5751.743	5817.588	10193.33	6386.312	6210.676	6547.983	7096.465	6393.722	6202.036	6170.888	6777.415	7104.709	6742.855	6910.821	7078.476	7082.678	6495.453	7407.08	6415.988	7687.99						
		6207.833	6686.739	6157.444	5764.377	7029.288	6239.332	7057.852	5937.134	6398.854	6444.123	5957.699	6037.396	6761.529	6624.216	6182.301	5699.175	7234.299	5802.46	6688.078	5932.237	7300.643	6094.317	8132.404	6474.027						
		5675.535	6922.579	6403.014	6401.637	6350.721	6488.744	6208.845	6030.458	5895.877	6390.349	6865.221	7071.175	6956.451	6817.608	5862.42	5289.555	6806.226	6575.348	6201.286	6118.14	6744.268	6688.317	8959.48	6506.648						
		6226.447	6207.191	5860.36	5963.518	5895.687	8858.169	7053.906	5829.366	5744.882	6922.366	6164.023	6283.952	5770.937	6494.983	7142.709	6073.713	6525.598	6490.916	7094.686	6705.503	7161.679	6008.059	7032.765	6471						
		6698.89	6450.069	6080.191	5840.832	5894.264	5952.294	6092.395	6460.982	5966.228	6153.889	5593.623	5801.73	6354.379	6216.843	6418.89	6261.625	6689.52	6211.697	6123.518	6537.286	6335.205	7150.614	6952.167	5896.521						
		6206.315	6078.107	6133.821	6167.711	6136.449	6105.756	6190.554	6916.681	6988.192	6920.341	6444.245	6242.981	6232.072	6659.68	7174.851	6094.18	6659.569	5756.284	6678.948	5882.372	5848.618	6117.275	6801.712	6462.515						
		6246.487	5651.484	6650.162	5655.397	5821.909	5896.156	5626.342	5364.893	6606.551	6544.133	6545.054	6052.012	6254.039	6651.809	5962.717	6046.114	6076.426	8232.849	6942.399	7117.808	6138.661	6049.091	6117.926	6383.124						
		6158.409	5847.657	5788.88	6047.044	5646.571	5969.084	6716.854	6118.343	6338.87	5906.077	6455.619	6254.502	6397.549	6325.329	5919.791	6347.858	6612.831	6238.804	6264.306	5974.397	6125.625	6114.115	5472.204	7824.036						
		5076.814	5786.028	6287.976	6145.92	5829.953	6351.433	5876.136	5865.1	5893.362	5960.871	7485.553	7838.579	6379.841	6157.642	7030.105	6507.503	6249.701	7239.955	6282.624	6066.607	6538.634	6940.749	6890.891	6407.24						
		6103.645	5754.725	5636.751	6087.896	6001.81	5912.984	5944.827	6250.551	6847.602	7570.811	5891.832	6533.272	6491.721	6322.926	6975.674	6745.465	6137.715	6410.25	5986.824	6528.452	5832.826	6464.093	6798.717	6528.06						
		8415.332	8261.683	7190.526	5769.86	5817.128	6192.108	6726.6	6551.202	6738.705	6779.997	6573.486	6081.545	5787.445	6327.156	7493.565	6772.431	6465.085	5812.112	6039.373	6948.167	6644.17	6361.076	5873.254	6302.798						
		5912.393	6138.741	7192.534	6757.475	6161.839	5684.662	8401.543	9081.904	6081.146	6868.251	7357.752	8457.737	5609.186	5713.155	7956.68	7819.016	8353.389	8680.008	5987.844	6460.526	6316.4	5937.948	6902.879	6418.763						
		6316.313	5371.836	5581.392	5754.57	5790.639	6613.371	6144.182	6390.134	6031.889	7128.916	6138.439	7070.609	7494.158	7547.639	6718.397	6647.583	6787.675	7358.331	6243.945	6949.192	6243.466	6684.268	7560.418	7207.232						
		5990.769	6344.571	6767.083	5877.572	5907.513	6081.552	6585.589	5567.103	5566.97	6237.572	6104.131	6512.954	7041.738	7092.86	6628.955	6334.605	6020.135	6379.974	8870.812	9599.224	6126.83	7911.335	6441.155	6590.06						
																															
560	23.4	4981.899	5456.212	5265.54	5462.762	5028.942	5057.038	5641.142	5002.019	5453.128	5972.441	5853.28	5291.035	5184.484	5197.977	5274.784	4793.152	5784.582	6037.851	5619.959	4869.987	4907.677	4867.969	5556.836	5624.481						
		5944.363	6022.828	5675.339	5249.775	7490.91	5911.917	6434.033	7422.667	5868.978	6438.669	6034.046	5864.772	6070.849	5956.228	6157.251	5827.183	6809.953	5907.285	5828.231	5884.677	6609.868	5816.567	5613.36	6695.385						
		5536.138	7503.547	5694.157	6281.74	5282.968	5949.967	8495.664	6425.685	5874.326	6167.49	6471.737	6673.969	6136.665	5971.428	5848.886	5419.375	6307.619	5765.526	5812.103	5516.714	5881.659	6181.301	5544.159	6525.041						
		5704.254	6343.046	5312.115	5176.896	6781.474	5854.256	5679.526	6302.535	5999.583	6163.563	5999.97	5973.018	5257.249	6279.451	6001.371	5310.026	5716.887	5545.444	5671.072	5860.154	5761.011	6436.571	7033.495	6228.438						
		6035.963	6343.06	5355.679	5756.391	5394.791	5575.018	5809.414	5280.961	5553.083	5590.157	6483.195	5949.493	5848.306	5725.976	6243.375	5654.218	6020.133	5264.606	6008.76	6250.729	5717.703	6379.994	7636.061	6032.762						
		5470.332	5364.137	5492.921	5950.315	5594.029	7118.851	5364.326	6306.153	5491.632	5785.345	5838.023	5510.086	5727.197	5202.963	5937.184	5736.943	6150.35	6597.954	5125.551	5428.263	6152.641	5874.603	6256.475	5492.022						
		5615.028	5036.205	5152.628	5125.901	5270.833	5465.177	5380.841	5305.704	5750.025	5297.213	5466.855	5477.57	5396.783	5692.391	6523.414	6293.726	5604.871	5856.258	5349.558	6029.189	5452.807	5825.221	5847.907	5658.877						
		5973.023	5400.773	5822.724	5533.36	5661.016	5943.265	5730.963	5728.848	6075.921	5097.643	5291.185	5906.325	5373.495	6181.899	6299.216	6050.189	5899.765	5875.011	6005.171	5503.806	6368.49	5990.61	5866.218	5894.068						
		5628.488	5180.281	5751.59	5510.471	5656.91	5559.311	5837.354	5810.667	5542.896	5936.542	6536.423	5663.555	6361.117	5493.35	5824.517	5605.605	5268.088	6790.758	6322.598	5930.932	5852.626	5882.563	5969.248	5779.849						
		5745.579	5194.997	5267.055	5222.927	5434.917	5931.5	5450.017	5573	5268.522	6002.666	5938.921	5797.681	5802.839	6188.652	5581.331	5733.306	6314.234	5618.114	6290.985	5921.953	5475.369	5564.661	5856.017	6193.256						
		4745.067	5528.396	5275.93	5958.722	5560.454	5177.87	5566.75	5822.946	6234.28	5360.518	6213.247	6937.266	5293.008	5717.519	6120.64	5927.554	6264.717	5760.359	6100.57	6207.416	6314.945	5906.301	5727.739	5756.299						
		5556.993	5174.392	5910.953	5555.259	5467.674	5807.342	5366.027	5779.088	6216.343	6214.295	5336.5	5477.619	5582.519	6265.122	6597.15	5398.59	5194.577	5072.41	5894.757	5481.879	6263.814	5632.484	5306.294	5399.902						
		5460.139	5623.443	5371.406	6280.909	4862.553	5448.512	5401.326	5959.601	6039.064	6091.668	5034.794	5865.882	5657.271	5911.732	5590.75	7028.3	6318.411	5769.615	5102.82	5489.06	5908.77	5998.237	5439.018	5556.998						
		5504.834	5128.121	5539.755	5876.844	5181.627	5734.782	5593.182	6089.266	5473.443	5639.146	6163.063	6019.608	5284.1	4966.646	5983.097	5805.528	6305.765	5694.821	5909.944	5889.494	5482.54	6622.602	6005.783	6281.579						
		6116.018	5235.912	5167.594	5225.997	6687.535	8097.227	5773.763	5755.431	6088.867	6509.112	6198.638	5825.29	6480.35	6807.196	5962.682	6227.304	6764.907	6968.919	9245.217	8642.455	6560.653	7574.693	7269.203	6414.978						
		5797.338	5563.464	5655.715	6143.224	6138.204	6140.233	5850.043	5828.429	5425.953	6296.503	5210.526	5446.307	6144.764	5958.324	7535.591	7334.939	5888.784	5432.189	5382.958	5920.866	5997.219	7082.677	6005.702	5998.274						
																															
Wavelength(nm)		1	2	3	4	5	6	7	8	9	10	11	12	13	14	15	16	17	18	19	20	21	22	23	24						
		475	475	470	470	475	475	470	475	470	475	475	475	475	475	485	470	470	475	470	470	465	475	470	465						
		480	470	470	480	480	470	470	490	470	500	470	470	475	480	470	480	455	470	470	470	470	475	485	475						
		475	510	470	510	470	470	530	475	470	475	480	460	480	465	465	475	470	465	475	470	470	475	475	505						
		470	495	470	475	485	475	470	475	475	470	480	475	470	470	475	470	475	475	475	475	465	470	500	480						
		455	480	470	470	475	470	475	465	470	465	470	470	475	475	480	475	455	470	470	470	485	475	520	475						
		470	470	475	470	470	510	470	470	470	475	470	475	475	470	495	470	470	475	475	470	470	470	470	470						
		475	470	475	475	480	470	470	475	475	470	475	470	475	470	470	475	465	475	470	470	475	475	475	475						
		470	475	470	470	470	475	470	475	470	475	470	470	470	475	470	470	470	470	480	475	470	475	470	470						
		495	475	475	475	470	470	465	475	475	470	475	470	475	465	475	470	475	475	470	470	470	470	470	470						
		475	475	470	470	475	470	470	470	475	475	475	475	475	470	480	475	480	475	470	470	470	475	470	500						
		475	475	470	475	475	475	475	470	475	475	480	465	475	470	475	475	470	470	470	470	475	490	460	470						
		475	455	475	470	475	475	480	475	470	495	470	470	485	470	475	470	475	470	475	470	470	475	475	470						
		480	465	475	480	475	465	475	475	470	470	505	505	470	460	470	475	470	475	470	470	460	465	470	470						
		510	510	470	465	470	470	505	505	505	460	475	465	505	475	500	475	510	470	505	480	455	455	490	475						
		490	490	495	495	500	500	455	465	455	490	460	500	480	485	510	510	475	480	500	500	480	480	460	460						
		475	475	480	470	455	455	475	460	495	470	475	465	455	490	455	455	460	460	485	470	475	455	470	475						
~End																															
Instrument type: Instrument serial number:																															
