##BLOCKS= 1          																															
Plate:	Plate01	1.3	PlateFormat	Spectrum	Fluorescence	TRUE	Raw	FALSE	22			455	560	5			13	12	384	414	Manual	455	Emission Sweep	414	6	Automatic			12	5	None
Wavelength(nm)	Temperature(¡C)	1	2	3	4	5	6	7	8	9	10	11	12	13	14	15	16	17	18	19	20	21	22	23	24						
455	24.2																														
																															
																															
																															
																															
																															
																															
																															
																															
																															
																															
														87749.32	90008.195	89234.125	94023.703	81841.187	80407.328	87277.234	83661.562	88899.094	116159.977	117132.156	208820.781						
														161398.516	168744.891	163106.109	178138.984	156142.109	159886.328	177129.609	174050.5	174427.797	189208.031	326813.781	330050.313						
														259349.641	272596.75	271269.938	293657.031	301797.25	303267.125	342065.813	327172.125	404152.375	437937.938	532595.875	599693.438						
														373535.031	384546.75	384127.406	446410.062	380848.406	445402.625	500661.719	523454.625	474770.938	627310.937	679874.438	763165.625						
														472612.844	492241.125	509402.438	560527.875	536062.812	557429.562	602991.375	735474.125	668246.125	788153.312	937676.75	934716.125						
																															
460	24.2																														
																															
																															
																															
																															
																															
																															
																															
																															
																															
																															
														109129.711	111524.719	110864.844	113569.992	102618.836	96134.273	107715.477	105550.523	110828.336	145268.813	147606.297	268058.406						
														192373.937	204020.016	205377.156	215602.781	194223.344	206180.516	220678.984	214587.938	218319.312	235269.047	414420.906	460922.719						
														319962.687	337912.437	346192.781	370069.25	378049.5	383314.063	437770.906	419631.406	522009.875	558547.812	686722.062	825645.688						
														462944.344	483012.844	490472.469	558859	480656.406	570197.687	618974.687	669326.312	613899.5	814079.562	910948.125	1005334.75						
														579738.313	607215.812	635921	702673.5	691237.875	712501.438	755741.687	929711.437	860449.437	1012236.625	1220735	1230711.875						
																															
465	24.1																														
																															
																															
																															
																															
																															
																															
																															
																															
																															
																															
														121391.555	130252.648	127574.953	129022.422	115977.305	116499.43	125107.078	121309.531	132830.359	168107.516	170243.5	325072.781						
														228872.953	241194.406	237150.031	250058.281	224019.094	234261.859	259342.922	253422.047	260568.188	280041.719	487470.406	566789.25						
														376790.187	402727.813	397898.219	429241.063	435736.469	456884.656	512533.688	494597.375	610665.312	660849.563	811025.312	1007619.438						
														551120.937	568328.5	563481.875	654179.25	562118.75	676011.75	720153.875	796985.875	726280.625	995850.375	1114042.875	1214782.75						
														683870	713481.812	740627.437	833930.75	815199.875	843940.625	895407.25	1111192.625	1031441	1208555.625	1474626.375	1469527.5						
																															
470	24.1																														
																															
																															
																															
																															
																															
																															
																															
																															
																															
																															
														131010.453	136963.703	137901.594	139718.937	126786.367	122850.938	134074.984	129877.148	144567.781	178879.375	185951.016	354676.625						
														245564.547	254422.656	253257.812	270018.375	246416.328	253889.813	279916.094	274198.188	283290.813	307871.156	530133.125	648423.437						
														416791.469	434684.375	428121.875	465568.219	471729.781	494485.312	562640.875	532870.312	667498.188	727208.438	900280.563	1148664						
														598241.562	622218.938	622438.125	718912.75	606421.563	736374.687	790626.25	873604.687	808674	1120586.125	1258116.25	1388293.5						
														746637	782622.5	827669.437	913704.812	907345.125	939993.25	995316.625	1224506	1153216.625	1352994.75	1633733.125	1661843.125						
																															
475	24.1																														
																															
																															
																															
																															
																															
																															
																															
																															
																															
																															
														128942.258	136933.437	137470.344	139531.094	124398.57	119545.289	133091.484	129632.211	139397.234	182617.578	183969.719	359465.094						
														240913.031	252015.359	252263.313	267147.875	237082.391	253655.422	273590.625	267103.844	282393.531	302703.656	533644.563	652014.875						
														399076.156	418407.656	424797.469	458903.313	459200.781	477862.156	552061.75	529081.188	666491.875	724627.375	899167.563	1174998.5						
														592289.938	608454.375	622211.687	712825.313	605680.625	731578	776760.812	878298.125	800929.563	1130730.375	1305713	1399174						
														729286.687	778201.813	817506.125	906328.312	907160.937	933875.375	977694.062	1230110.75	1161017.625	1366739	1664113.875	1675182						
																															
480	24.1																														
																															
																															
																															
																															
																															
																															
																															
																															
																															
																															
														120757.156	126083.609	124551.32	129707.922	114316.297	115058.984	123458.438	123873.617	135279.797	172126.031	176017.891	345890.438						
														227451.031	240754.906	233500.969	254498.906	223066.625	234335.078	259480.078	252232.672	260642.109	283961	495209.969	636054.063						
														380360.781	396624.906	401410.125	432215.375	428180.125	450004.5	520603.406	486090.031	624628.688	689192.5	854651	1121301.75						
														556744.75	566143.438	572430.313	663045.563	565654.062	684837.875	727414.625	824635.375	751463.75	1074982.75	1241829.625	1346615.25						
														688811.75	720591.75	766192.75	857476.375	845232.625	871723.938	927644.938	1164909.5	1099451.125	1293594.625	1575701.25	1601638.25						
																															
485	24.1																														
																															
																															
																															
																															
																															
																															
																															
																															
																															
																															
														115956.594	121446.664	121158.578	125084.922	114344.836	108287.766	118309.055	117093.063	127336.148	163194.969	167953.172	336705.063						
														213402.312	223150.25	225805.281	235262.234	211029.344	230554.125	247304.391	240419.656	250253.156	269517.531	476622.719	612216.187						
														355797.313	379306.969	381837.5	406018.406	408483.813	429174.562	488780.906	468779.062	593037.875	653019.25	809691.125	1077125.5						
														522980.125	539628	548807.188	622568.875	535511.5	651898.563	681878.375	773765.063	724696.313	1037117.688	1201142.875	1285938.625						
														650540.5	680992.75	728961.875	797025.687	804920.75	837488.75	875385.125	1131451.5	1058070.5	1232204.125	1520041.125	1553095						
																															
490	24.1																														
																															
																															
																															
																															
																															
																															
																															
																															
																															
																															
														107668.094	111243.398	115041.031	114017.664	103590.781	101832.102	114235.875	108490.109	120811.719	152364.047	152004.437	315800.406						
														200251.328	209058.719	209387.672	225105.469	201127.703	210831.766	231437.375	225717.234	229644.5	255368.5	444801.75	574887.25						
														332339.969	347504.969	353808.469	386617.781	374947.625	396253.187	454585.312	434593.25	546292.188	606550.437	747285.938	1002038.875						
														481950.719	489728.188	511535	577983.125	496009.437	609844.313	646232.687	723519.5	665294.125	968646.5	1115426.375	1205921.375						
														598859.062	641116.688	674408.125	752723.563	742138.063	765696.562	820647.188	1036913.063	975085.75	1156993.625	1408240.625	1452223.625						
																															
495	24																														
																															
																															
																															
																															
																															
																															
																															
																															
																															
																															
														103385.523	109796.445	108613.953	111827.297	100436.57	96422.43	106798.477	105397.805	113518.602	138561.359	139470	277885.25						
														190968.578	197829.094	196688.531	208751.562	183717.578	196529.141	211450.703	211098.187	213186.906	232143.047	392264.406	512543.75						
														314145.125	326991.531	332421.719	355351.75	346893.781	362595.969	417374.844	405823.156	496063.625	543700.5	666121.062	896220.625						
														447540.719	455173.594	463804.187	539527.875	450932.219	555266.188	577864.687	656605.187	595808.75	870741.687	1010165.625	1080013.625						
														547925.875	577651.25	609612.875	682113.5	666665.562	693917.687	734879.562	941119.5	882018.75	1038515.062	1266647.375	1289989						
																															
500	24																														
																															
																															
																															
																															
																															
																															
																															
																															
																															
																															
														114883.617	117891.313	120245.914	122225.625	110599.375	108530.359	112761.875	108189.828	114644.766	132733.453	127833.375	244558.813						
														204390	210432.953	210286.578	221888.469	200666.234	207129.875	224241.094	215714.891	207248.797	218963.187	360513.906	457201.5						
														324757.781	338411.812	342051.5	365178.625	355073.406	369368.844	416882.875	395406.312	476989.594	512362.438	614621.562	823213						
														459092.031	468549.75	477382.281	538243	454767.719	546507.063	563110.313	633262.375	576143.625	802144.875	929713	991631.25						
														545957.25	575937.375	606524.563	661817.5	656938.813	664459.5	701068.5	876288.938	818381.75	960742.687	1140598.75	1176405.625						
																															
505	24																														
																															
																															
																															
																															
																															
																															
																															
																															
																															
																															
														146378.953	154406.266	151443.828	155881.234	140097.672	134800.469	139931.719	133253.141	140252.703	142829.609	130053.141	224634.156						
														249403.906	260470.875	254540.141	266596.656	243644.5	249274.578	264735.375	252595.531	224781.422	227867.281	346534.219	422761.125						
														389638.438	402716.781	404469.438	425056.406	414605.625	427871.187	467973.813	444757.469	486283.5	500950.187	584023.75	757462.25						
														522955.812	545635.812	540603	588827.687	514785.875	593859.687	598394.5	662076.875	590499.188	789309.688	871116.313	908389.188						
														611200.125	640459.5	665060.75	711173.688	710246.125	693483.813	728610.625	876554.313	816554.313	923430	1081618.375	1089245.25						
																															
510	24																														
																															
																															
																															
																															
																															
																															
																															
																															
																															
																															
														215878.813	226290.578	219663.469	219999.516	203644.625	195838.328	194464.531	182582.453	185879.313	170541.766	149566.656	205852.984						
														356091.438	365077.469	365575.531	379517.469	343440.313	351096.937	357984.25	346415.906	283553.75	267824.469	351036.031	380638.281						
														529177.188	545902.312	558612.25	579963.5	557096.062	546958.625	579398.375	562979.875	553409.438	534385.375	551191.625	676146.375						
														685643.375	705547	713487.375	769524.437	655045.188	734038.312	722228	755520.313	675246.813	803404	820440.5	823013.75						
														787619.875	810602.688	836255.5	877201.188	864329.5	788645	817570.563	951040.938	865908.125	931903.437	988236.5	973574						
																															
515	24																														
																															
																															
																															
																															
																															
																															
																															
																															
																															
																															
														387919.719	398551.062	387904.594	386531.906	351321.781	342609.844	337236.438	301479.531	299397.906	238559.016	187573.891	179520.391						
														610999	640845.875	634582	639711.312	593263.062	592786.25	583978.875	560525	417370.469	368454.562	378560.688	328867.75						
														884173.563	920902.062	930952.25	960403.5	914927.438	867356.75	879447.375	847118.937	734841.813	644827.812	550363.187	586915.312						
														1115343.125	1145454.625	1158512.25	1202416.25	1020825.687	1090097.5	1016373.75	1015155.063	873936.125	897475.375	785739.062	719892.813						
														1238810.125	1263475.25	1270776.5	1286047.5	1251558.25	1103519.875	1109209.75	1149726.125	1038388	1004939.187	906740.063	852729.312						
																															
520	24																														
																															
																															
																															
																															
																															
																															
																															
																															
																															
																															
														656887.062	678804.062	664675.5	646360.438	572203.813	560205.5	540856.813	475819.719	473138.625	341580.156	254280.328	148499.906						
														1041262.313	1062304.375	1058865.375	1049263.625	961920.437	952789.25	934619.063	881617.562	616917	516195.25	430886.906	273201.281						
														1464708.5	1488517.25	1524407.375	1531693.625	1443364.375	1355973	1330223.375	1267661.375	999467.563	800654.687	588111.375	492086.656						
														1791747.25	1838058.25	1830267.625	1850410	1596286.875	1601648	1481597.25	1415530.875	1202255	1045659.937	769204.875	603315.875						
														1956393.375	1977781.625	1957314.5	1927606.875	1836215.25	1578423.25	1580664.375	1493675.25	1312258.125	1143246.25	834942	715774.438						
																															
525	23.9																														
																															
																															
																															
																															
																															
																															
																															
																															
																															
																															
														817620.375	844077.25	807993.313	786863.625	696468.438	678875.563	654683.375	575197.625	554247.062	383879.531	284884.656	131258.797						
														1288735.25	1295890.875	1298728.25	1293743.625	1149988.5	1156342.5	1100415.375	1040426.937	722272.5	579494.875	443158.094	241867						
														1772737.875	1823192.625	1836760.125	1844469.5	1727027	1596457.875	1537600.625	1488300.375	1118659.75	852803.875	588781.562	424921.594						
														2189933.75	2214389.25	2189705.25	2199195	1908907.625	1890775.25	1709518	1605486.5	1357683.125	1098461.25	745847.625	523239.563						
														2363035.5	2372899.75	2307971.25	2275238	2149960	1823441	1792194.875	1652172.25	1428169.25	1205307.625	778086.75	613631.875						
																															
530	23.9																														
																															
																															
																															
																															
																															
																															
																															
																															
																															
																															
														880188.25	910776.375	863659.063	842698.437	743517.375	722037.062	685011.938	587564	573822.75	392556.281	287756.937	117155.008						
														1389763.125	1394003.375	1379228.75	1358325	1248424	1235734.75	1144180.625	1086501.125	747915	599727.188	429502.781	212945.953						
														1907068.5	1928609.625	1931427.875	1942087.5	1820031.25	1691389.875	1600677.5	1518417.25	1134798.5	863015.125	563383.625	374473.156						
														2319669.75	2335428	2322414.5	2333176	2017768.75	1977736.5	1766810.5	1636349	1384190	1099422.5	701852.125	457646.031						
														2545534.5	2526976.5	2471163	2401663.75	2280754.5	1897288.5	1854188.625	1684126.75	1460613.875	1191483.75	715525.062	546636.938						
																															
535	23.9																														
																															
																															
																															
																															
																															
																															
																															
																															
																															
																															
														861458.813	887834.375	843921.75	812391.937	721298.937	686799.75	654490.062	559316.313	544253.937	366804.156	262692.719	101941.023						
														1358300	1377923.375	1340107.375	1316888.125	1197154.625	1165270.25	1081937.125	1029275.375	702574.625	563707.875	392821.594	189319.234						
														1855501.125	1886145.875	1879408	1879278.875	1748975.625	1611150.625	1501157.375	1439920.25	1070000	798692.813	517372.219	326088.344						
														2275230.5	2285796.25	2253596	2249866	1945114.5	1877631.625	1671322.875	1545859.5	1298287.25	1007595.812	641498.125	404517						
														2496263.75	2475969	2399819.25	2313051	2183269.25	1825756	1761417.75	1590783.25	1372677.25	1112404	644464.062	470683.437						
																															
540	23.9																														
																															
																															
																															
																															
																															
																															
																															
																															
																															
																															
														742676.5	754891.187	720649.625	685581.5	598370.812	579413.625	550288.938	472475.063	442652.5	303242.219	215891.313	85026.711						
														1170062.25	1174642.25	1150557.125	1111209.125	1011219.312	986922.25	914118.875	862698.937	583214.312	468603.969	317020.063	155142.047						
														1602565.125	1619384.5	1604789	1589699.75	1480917.625	1365165.25	1273900.125	1212076.25	874256.438	658005	426606.969	277194.281						
														1965358	1981353.875	1953491	1900168.125	1667339.25	1602208.25	1422091	1299776.5	1079258	838859.375	535149.5	339335.875						
														2173742.5	2153598.25	2080760	1982675	1879034	1554453.375	1507913.125	1333511.625	1147111.5	923038.688	528868	403065.375						
																															
545	23.9																														
																															
																															
																															
																															
																															
																															
																															
																															
																															
																															
														580478.687	590334.125	552814.562	528682.625	465881.406	444402.156	422782.094	363948.375	348568.906	233880.859	164082.953	68174.648						
														919913.5	907764.75	886638.5	872087.625	786088.875	761577.75	706062.25	684655.688	446891.813	363246.156	254369.875	127285.195						
														1270145.625	1274636	1264756.625	1249497.125	1179378.75	1054079.75	993670.5	933392.063	690676.25	509927.094	338812.219	226728.547						
														1569058	1573705.5	1540553.75	1514486.375	1299634.125	1242011.125	1108257.375	1000749.312	846967	660208.188	423431.531	281361.719						
														1743171.625	1719837.5	1640151.375	1578183.875	1498219.375	1221050.625	1175189.375	1049671.25	887320.438	723706.875	433313.125	335198.063						
																															
550	23.9																														
																															
																															
																															
																															
																															
																															
																															
																															
																															
																															
														487162	501545.375	463785.156	444268.687	392887.875	374159.25	359006.25	299425.281	292036.875	198483.219	140445.516	62098.809						
														771831.625	765329.375	745509.625	719902.187	659193.75	650253.375	588704.312	556879.875	381573.5	308907.531	211923.344	110825.937						
														1075552.875	1067416.875	1059348.5	1054547.125	970981.812	903495.188	829097.188	782662.25	582183.75	432351.812	291242.937	197997.953						
														1324366.75	1322180.5	1300136.375	1278622.25	1104386.75	1060608.875	939102.438	849857	713511.937	553699.062	363468.375	242576.219						
														1471939.75	1459354.25	1384596.5	1325690.375	1257865.5	1040976.875	989788.875	874409.75	758464.5	612181.875	370736.937	282417.375						
																															
555	23.8																														
																															
																															
																															
																															
																															
																															
																															
																															
																															
																															
														429461.563	431741.469	409913.969	388077.313	338622.094	322129.375	306633.25	263411.25	252679.422	170275.906	121045.937	53441.578						
														680018.25	674031.75	652055.5	634573.375	579878.188	553373.563	515994.812	489335.844	333752.625	262260.437	187802.094	97030.961						
														931251.25	940346.125	924459.562	923812.875	856936.937	774701	725035.75	690068.187	509473.375	376829.531	257302.828	175945.047						
														1149073	1166644.625	1156985.625	1114813.375	961304.562	920466.813	818812.125	746503.062	619713.5	481159.438	319784.125	213468.578						
														1295486.5	1285287.625	1223423.75	1178593.375	1097411.875	894543.438	871250.375	772582.938	659611.563	531231.25	324374.281	254639.891						
																															
560	23.8																														
																															
																															
																															
																															
																															
																															
																															
																															
																															
																															
														361370.094	369099.594	351027.781	329795.25	290320.938	279549.844	263037.5	226905.906	215399.312	147221.234	102287.852	45987.02						
														581810.375	567804.375	562537	553169.313	492859.625	483212.844	433966	413053.219	278835.406	226649.172	160228.234	82003.141						
														799118.625	796345.812	803434.25	800698.625	735564.188	671703.25	621839.437	576431.563	436750.719	325464.125	214750.188	144947.672						
														998332.625	991113.563	993530.5	961068.063	824793.188	799466	700827.25	628981.375	532351.563	416424.156	272338.625	177960.687						
														1109712.125	1092181.375	1053406.375	1014745.875	936213.375	785311.562	751408.75	657917.75	560744.438	459099.062	270656.062	210670.219						
																															
Wavelength(nm)		1	2	3	4	5	6	7	8	9	10	11	12	13	14	15	16	17	18	19	20	21	22	23	24						
																															
																															
																															
																															
																															
																															
																															
																															
																															
																															
																															
														 	 	 	 	 	 	 	 	 	 	 	 						
														 	 	 	 	 	 	 	 	 	 	 	 						
														 	 	 	 	 	 	 	 	 	 	 	 						
														 	 	 	 	 	 	 	 	 	 	 	 						
														 	 	 	 	 	 	 	 	 	 	 	 						
~End																															
Instrument type: Instrument serial number:																															
